     Time	   ECG1	   ECG2
(hh:mm:ss.mmm)	   (mV)	   (mV)
[09:55:00.000]	 -0.095	 -0.025
[09:55:00.008]	 -0.085	 -0.035
[09:55:00.016]	 -0.085	 -0.025
[09:55:00.023]	 -0.085	 -0.015
[09:55:00.031]	 -0.065	 -0.005
[09:55:00.039]	 -0.045	 -0.015
[09:55:00.047]	 -0.045	 -0.005
[09:55:00.055]	 -0.045	  0.015
[09:55:00.063]	 -0.045	  0.025
[09:55:00.070]	 -0.025	  0.055
[09:55:00.078]	 -0.035	  0.065
[09:55:00.086]	 -0.005	  0.075
[09:55:00.094]	  0.005	  0.105
[09:55:00.102]	  0.005	  0.115
[09:55:00.109]	 -0.005	  0.135
[09:55:00.117]	 -0.015	  0.145
[09:55:00.125]	 -0.035	  0.135
[09:55:00.133]	 -0.035	  0.115
[09:55:00.141]	 -0.065	  0.095
[09:55:00.148]	 -0.075	  0.085
[09:55:00.156]	 -0.105	  0.075
[09:55:00.164]	 -0.105	  0.065
[09:55:00.172]	 -0.055	  0.055
[09:55:00.180]	 -0.005	  0.045
[09:55:00.188]	  0.015	  0.025
[09:55:00.195]	  0.005	 -0.005
[09:55:00.203]	  0.015	 -0.025
[09:55:00.211]	 -0.005	 -0.055
[09:55:00.219]	 -0.025	 -0.075
[09:55:00.227]	 -0.025	 -0.085
[09:55:00.234]	 -0.005	 -0.075
[09:55:00.242]	 -0.025	 -0.065
[09:55:00.250]	 -0.005	 -0.065
[09:55:00.258]	 -0.015	 -0.075
[09:55:00.266]	 -0.005	 -0.065
[09:55:00.273]	 -0.005	 -0.055
[09:55:00.281]	 -0.015	 -0.055
[09:55:00.289]	 -0.005	 -0.065
[09:55:00.297]	 -0.005	 -0.075
[09:55:00.305]	  0.005	 -0.055
[09:55:00.313]	 -0.005	 -0.065
[09:55:00.320]	 -0.015	 -0.055
[09:55:00.328]	  0.005	 -0.065
[09:55:00.336]	  0.005	 -0.075
[09:55:00.344]	 -0.015	 -0.075
[09:55:00.352]	 -0.015	 -0.065
[09:55:00.359]	 -0.025	 -0.065
[09:55:00.367]	 -0.015	 -0.025
[09:55:00.375]	  0.015	 -0.005
[09:55:00.383]	  0.025	  0.005
[09:55:00.391]	  0.045	  0.005
[09:55:00.398]	  0.105	  0.005
[09:55:00.406]	  0.095	 -0.005
[09:55:00.414]	  0.135	 -0.005
[09:55:00.422]	  0.155	 -0.035
[09:55:00.430]	  0.105	 -0.065
[09:55:00.438]	  0.035	 -0.065
[09:55:00.445]	 -0.025	 -0.105
[09:55:00.453]	 -0.065	 -0.105
[09:55:00.461]	 -0.075	 -0.105
[09:55:00.469]	 -0.085	 -0.105
[09:55:00.477]	 -0.105	 -0.115
[09:55:00.484]	 -0.095	 -0.105
[09:55:00.492]	 -0.105	 -0.115
[09:55:00.500]	 -0.095	 -0.115
[09:55:00.508]	 -0.075	 -0.105
[09:55:00.516]	 -0.135	 -0.075
[09:55:00.523]	 -0.105	 -0.035
[09:55:00.531]	  0.145	 -0.085
[09:55:00.539]	  0.965	 -0.505
[09:55:00.547]	  1.825	 -1.045
[09:55:00.555]	  0.415	 -0.985
[09:55:00.563]	 -0.835	 -0.495
[09:55:00.570]	 -0.765	 -0.145
[09:55:00.578]	 -0.345	 -0.025
[09:55:00.586]	 -0.145	 -0.005
[09:55:00.594]	 -0.125	 -0.005
[09:55:00.602]	 -0.115	 -0.005
[09:55:00.609]	 -0.115	 -0.005
[09:55:00.617]	 -0.115	 -0.005
[09:55:00.625]	 -0.115	  0.015
[09:55:00.633]	 -0.115	  0.015
[09:55:00.641]	 -0.105	  0.005
[09:55:00.648]	 -0.085	  0.025
[09:55:00.656]	 -0.085	  0.035
[09:55:00.664]	 -0.095	  0.025
[09:55:00.672]	 -0.085	  0.055
[09:55:00.680]	 -0.055	  0.055
[09:55:00.688]	 -0.045	  0.075
[09:55:00.695]	 -0.045	  0.075
[09:55:00.703]	 -0.035	  0.105
[09:55:00.711]	 -0.025	  0.115
[09:55:00.719]	 -0.015	  0.125
[09:55:00.727]	 -0.025	  0.145
[09:55:00.734]	 -0.025	  0.155
[09:55:00.742]	 -0.045	  0.155
[09:55:00.750]	 -0.055	  0.145
[09:55:00.758]	 -0.085	  0.115
[09:55:00.766]	 -0.115	  0.095
[09:55:00.773]	 -0.135	  0.085
[09:55:00.781]	 -0.145	  0.065
[09:55:00.789]	 -0.115	  0.055
[09:55:00.797]	 -0.085	  0.045
[09:55:00.805]	 -0.045	  0.065
[09:55:00.813]	 -0.025	  0.045
[09:55:00.820]	 -0.015	  0.015
[09:55:00.828]	 -0.015	 -0.015
[09:55:00.836]	 -0.025	 -0.035
[09:55:00.844]	 -0.055	 -0.045
[09:55:00.852]	 -0.055	 -0.055
[09:55:00.859]	 -0.055	 -0.055
[09:55:00.867]	 -0.035	 -0.045
[09:55:00.875]	 -0.035	 -0.055
[09:55:00.883]	 -0.035	 -0.055
[09:55:00.891]	 -0.035	 -0.045
[09:55:00.898]	 -0.035	 -0.045
[09:55:00.906]	 -0.045	 -0.035
[09:55:00.914]	 -0.035	 -0.055
[09:55:00.922]	 -0.045	 -0.055
[09:55:00.930]	 -0.045	 -0.045
[09:55:00.938]	 -0.045	 -0.045
[09:55:00.945]	 -0.035	 -0.055
[09:55:00.953]	 -0.035	 -0.065
[09:55:00.961]	 -0.055	 -0.065
[09:55:00.969]	 -0.065	 -0.065
[09:55:00.977]	 -0.065	 -0.075
[09:55:00.984]	 -0.075	 -0.065
[09:55:00.992]	 -0.065	 -0.045
[09:55:01.000]	 -0.045	 -0.005
[09:55:01.008]	 -0.005	  0.005
[09:55:01.016]	  0.005	  0.005
[09:55:01.023]	  0.065	  0.005
[09:55:01.031]	  0.065	 -0.015
[09:55:01.039]	  0.095	 -0.005
[09:55:01.047]	  0.095	 -0.005
[09:55:01.055]	  0.115	 -0.055
[09:55:01.063]	  0.035	 -0.085
[09:55:01.070]	 -0.015	 -0.075
[09:55:01.078]	 -0.075	 -0.115
[09:55:01.086]	 -0.115	 -0.125
[09:55:01.094]	 -0.135	 -0.135
[09:55:01.102]	 -0.135	 -0.135
[09:55:01.109]	 -0.145	 -0.135
[09:55:01.117]	 -0.155	 -0.125
[09:55:01.125]	 -0.135	 -0.135
[09:55:01.133]	 -0.135	 -0.145
[09:55:01.141]	 -0.145	 -0.105
[09:55:01.148]	 -0.185	 -0.065
[09:55:01.156]	 -0.035	 -0.005
[09:55:01.164]	  0.445	 -0.355
[09:55:01.172]	  1.485	 -0.795
[09:55:01.180]	  1.815	 -1.335
[09:55:01.188]	 -0.095	 -1.015
[09:55:01.195]	 -0.965	 -0.405
[09:55:01.203]	 -0.615	 -0.085
[09:55:01.211]	 -0.265	 -0.005
[09:55:01.219]	 -0.165	 -0.025
[09:55:01.227]	 -0.165	 -0.035
[09:55:01.234]	 -0.165	 -0.045
[09:55:01.242]	 -0.155	 -0.025
[09:55:01.250]	 -0.155	 -0.015
[09:55:01.258]	 -0.135	 -0.025
[09:55:01.266]	 -0.145	 -0.025
[09:55:01.273]	 -0.135	 -0.005
[09:55:01.281]	 -0.135	  0.005
[09:55:01.289]	 -0.135	  0.005
[09:55:01.297]	 -0.115	  0.015
[09:55:01.305]	 -0.115	  0.035
[09:55:01.313]	 -0.105	  0.065
[09:55:01.320]	 -0.105	  0.075
[09:55:01.328]	 -0.095	  0.085
[09:55:01.336]	 -0.065	  0.095
[09:55:01.344]	 -0.075	  0.125
[09:55:01.352]	 -0.065	  0.145
[09:55:01.359]	 -0.065	  0.165
[09:55:01.367]	 -0.055	  0.155
[09:55:01.375]	 -0.075	  0.175
[09:55:01.383]	 -0.095	  0.175
[09:55:01.391]	 -0.105	  0.145
[09:55:01.398]	 -0.125	  0.135
[09:55:01.406]	 -0.135	  0.125
[09:55:01.414]	 -0.155	  0.115
[09:55:01.422]	 -0.145	  0.085
[09:55:01.430]	 -0.135	  0.085
[09:55:01.438]	 -0.085	  0.055
[09:55:01.445]	 -0.065	  0.025
[09:55:01.453]	 -0.055	 -0.025
[09:55:01.461]	 -0.065	 -0.035
[09:55:01.469]	 -0.075	 -0.075
[09:55:01.477]	 -0.085	 -0.075
[09:55:01.484]	 -0.105	 -0.095
[09:55:01.492]	 -0.095	 -0.075
[09:55:01.500]	 -0.095	 -0.085
[09:55:01.508]	 -0.085	 -0.075
[09:55:01.516]	 -0.085	 -0.085
[09:55:01.523]	 -0.075	 -0.075
[09:55:01.531]	 -0.075	 -0.075
[09:55:01.539]	 -0.095	 -0.065
[09:55:01.547]	 -0.095	 -0.075
[09:55:01.555]	 -0.075	 -0.075
[09:55:01.563]	 -0.075	 -0.085
[09:55:01.570]	 -0.075	 -0.085
[09:55:01.578]	 -0.085	 -0.095
[09:55:01.586]	 -0.085	 -0.085
[09:55:01.594]	 -0.105	 -0.095
[09:55:01.602]	 -0.095	 -0.105
[09:55:01.609]	 -0.085	 -0.105
[09:55:01.617]	 -0.115	 -0.085
[09:55:01.625]	 -0.065	 -0.035
[09:55:01.633]	 -0.045	 -0.025
[09:55:01.641]	 -0.025	 -0.015
[09:55:01.648]	  0.025	 -0.035
[09:55:01.656]	  0.015	 -0.065
[09:55:01.664]	  0.065	 -0.055
[09:55:01.672]	  0.045	 -0.045
[09:55:01.680]	  0.065	 -0.105
[09:55:01.688]	 -0.025	 -0.115
[09:55:01.695]	 -0.055	 -0.135
[09:55:01.703]	 -0.115	 -0.155
[09:55:01.711]	 -0.155	 -0.165
[09:55:01.719]	 -0.175	 -0.155
[09:55:01.727]	 -0.145	 -0.175
[09:55:01.734]	 -0.185	 -0.165
[09:55:01.742]	 -0.175	 -0.175
[09:55:01.750]	 -0.165	 -0.175
[09:55:01.758]	 -0.155	 -0.175
[09:55:01.766]	 -0.185	 -0.145
[09:55:01.773]	 -0.185	 -0.105
[09:55:01.781]	  0.055	 -0.155
[09:55:01.789]	  0.875	 -0.585
[09:55:01.797]	  1.955	 -1.175
[09:55:01.805]	  0.875	 -1.285
[09:55:01.813]	 -0.755	 -0.715
[09:55:01.820]	 -0.835	 -0.195
[09:55:01.828]	 -0.395	 -0.065
[09:55:01.836]	 -0.195	 -0.065
[09:55:01.844]	 -0.175	 -0.075
[09:55:01.852]	 -0.175	 -0.075
[09:55:01.859]	 -0.185	 -0.085
[09:55:01.867]	 -0.165	 -0.085
[09:55:01.875]	 -0.165	 -0.065
[09:55:01.883]	 -0.185	 -0.065
[09:55:01.891]	 -0.165	 -0.055
[09:55:01.898]	 -0.145	 -0.045
[09:55:01.906]	 -0.165	 -0.025
[09:55:01.914]	 -0.155	 -0.025
[09:55:01.922]	 -0.125	 -0.015
[09:55:01.930]	 -0.115	 -0.005
[09:55:01.938]	 -0.115	  0.015
[09:55:01.945]	 -0.115	  0.025
[09:55:01.953]	 -0.105	  0.055
[09:55:01.961]	 -0.085	  0.065
[09:55:01.969]	 -0.095	  0.085
[09:55:01.977]	 -0.095	  0.105
[09:55:01.984]	 -0.085	  0.115
[09:55:01.992]	 -0.075	  0.125
[09:55:02.000]	 -0.085	  0.135
[09:55:02.008]	 -0.115	  0.115
[09:55:02.016]	 -0.125	  0.085
[09:55:02.023]	 -0.145	  0.085
[09:55:02.031]	 -0.165	  0.055
[09:55:02.039]	 -0.165	  0.045
[09:55:02.047]	 -0.145	  0.025
[09:55:02.055]	 -0.105	  0.025
[09:55:02.063]	 -0.085	  0.005
[09:55:02.070]	 -0.075	 -0.035
[09:55:02.078]	 -0.075	 -0.075
[09:55:02.086]	 -0.085	 -0.095
[09:55:02.094]	 -0.115	 -0.095
[09:55:02.102]	 -0.115	 -0.115
[09:55:02.109]	 -0.115	 -0.125
[09:55:02.117]	 -0.095	 -0.125
[09:55:02.125]	 -0.095	 -0.105
[09:55:02.133]	 -0.115	 -0.115
[09:55:02.141]	 -0.095	 -0.105
[09:55:02.148]	 -0.095	 -0.115
[09:55:02.156]	 -0.105	 -0.105
[09:55:02.164]	 -0.085	 -0.115
[09:55:02.172]	 -0.095	 -0.105
[09:55:02.180]	 -0.085	 -0.115
[09:55:02.188]	 -0.085	 -0.115
[09:55:02.195]	 -0.095	 -0.105
[09:55:02.203]	 -0.085	 -0.105
[09:55:02.211]	 -0.095	 -0.115
[09:55:02.219]	 -0.095	 -0.115
[09:55:02.227]	 -0.105	 -0.135
[09:55:02.234]	 -0.105	 -0.135
[09:55:02.242]	 -0.105	 -0.135
[09:55:02.250]	 -0.105	 -0.125
[09:55:02.258]	 -0.105	 -0.105
[09:55:02.266]	 -0.055	 -0.075
[09:55:02.273]	 -0.045	 -0.055
[09:55:02.281]	 -0.015	 -0.055
[09:55:02.289]	  0.015	 -0.065
[09:55:02.297]	  0.025	 -0.085
[09:55:02.305]	  0.045	 -0.075
[09:55:02.313]	  0.075	 -0.075
[09:55:02.320]	  0.055	 -0.135
[09:55:02.328]	 -0.055	 -0.125
[09:55:02.336]	 -0.065	 -0.135
[09:55:02.344]	 -0.105	 -0.185
[09:55:02.352]	 -0.145	 -0.185
[09:55:02.359]	 -0.165	 -0.195
[09:55:02.367]	 -0.155	 -0.175
[09:55:02.375]	 -0.165	 -0.185
[09:55:02.383]	 -0.165	 -0.185
[09:55:02.391]	 -0.165	 -0.185
[09:55:02.398]	 -0.135	 -0.155
[09:55:02.406]	 -0.215	 -0.125
[09:55:02.414]	 -0.105	 -0.055
[09:55:02.422]	  0.375	 -0.315
[09:55:02.430]	  1.365	 -0.715
[09:55:02.438]	  1.885	 -1.335
[09:55:02.445]	 -0.015	 -1.055
[09:55:02.453]	 -1.005	 -0.445
[09:55:02.461]	 -0.705	 -0.135
[09:55:02.469]	 -0.305	 -0.055
[09:55:02.477]	 -0.195	 -0.075
[09:55:02.484]	 -0.175	 -0.085
[09:55:02.492]	 -0.175	 -0.085
[09:55:02.500]	 -0.175	 -0.065
[09:55:02.508]	 -0.175	 -0.075
[09:55:02.516]	 -0.165	 -0.065
[09:55:02.523]	 -0.155	 -0.055
[09:55:02.531]	 -0.155	 -0.045
[09:55:02.539]	 -0.155	 -0.045
[09:55:02.547]	 -0.145	 -0.045
[09:55:02.555]	 -0.125	 -0.035
[09:55:02.563]	 -0.105	 -0.025
[09:55:02.570]	 -0.125	 -0.015
[09:55:02.578]	 -0.125	 -0.005
[09:55:02.586]	 -0.105	  0.005
[09:55:02.594]	 -0.105	  0.025
[09:55:02.602]	 -0.085	  0.055
[09:55:02.609]	 -0.075	  0.055
[09:55:02.617]	 -0.065	  0.075
[09:55:02.625]	 -0.095	  0.085
[09:55:02.633]	 -0.105	  0.095
[09:55:02.641]	 -0.115	  0.095
[09:55:02.648]	 -0.135	  0.085
[09:55:02.656]	 -0.145	  0.065
[09:55:02.664]	 -0.185	  0.045
[09:55:02.672]	 -0.175	  0.025
[09:55:02.680]	 -0.175	  0.015
[09:55:02.688]	 -0.155	  0.005
[09:55:02.695]	 -0.115	  0.015
[09:55:02.703]	 -0.085	 -0.015
[09:55:02.711]	 -0.065	 -0.035
[09:55:02.719]	 -0.075	 -0.075
[09:55:02.727]	 -0.085	 -0.095
[09:55:02.734]	 -0.095	 -0.115
[09:55:02.742]	 -0.115	 -0.115
[09:55:02.750]	 -0.105	 -0.115
[09:55:02.758]	 -0.095	 -0.115
[09:55:02.766]	 -0.095	 -0.125
[09:55:02.773]	 -0.095	 -0.115
[09:55:02.781]	 -0.105	 -0.115
[09:55:02.789]	 -0.095	 -0.105
[09:55:02.797]	 -0.065	 -0.105
[09:55:02.805]	 -0.085	 -0.105
[09:55:02.813]	 -0.095	 -0.095
[09:55:02.820]	 -0.075	 -0.115
[09:55:02.828]	 -0.075	 -0.115
[09:55:02.836]	 -0.075	 -0.125
[09:55:02.844]	 -0.105	 -0.115
[09:55:02.852]	 -0.105	 -0.125
[09:55:02.859]	 -0.105	 -0.125
[09:55:02.867]	 -0.105	 -0.125
[09:55:02.875]	 -0.105	 -0.125
[09:55:02.883]	 -0.115	 -0.135
[09:55:02.891]	 -0.125	 -0.125
[09:55:02.898]	 -0.125	 -0.105
[09:55:02.906]	 -0.085	 -0.075
[09:55:02.914]	 -0.075	 -0.075
[09:55:02.922]	 -0.055	 -0.055
[09:55:02.930]	 -0.035	 -0.045
[09:55:02.938]	 -0.015	 -0.035
[09:55:02.945]	  0.035	 -0.075
[09:55:02.953]	  0.045	 -0.065
[09:55:02.961]	  0.085	 -0.095
[09:55:02.969]	 -0.015	 -0.125
[09:55:02.977]	 -0.075	 -0.135
[09:55:02.984]	 -0.115	 -0.165
[09:55:02.992]	 -0.155	 -0.165
[09:55:03.000]	 -0.165	 -0.165
[09:55:03.008]	 -0.175	 -0.165
[09:55:03.016]	 -0.175	 -0.175
[09:55:03.023]	 -0.175	 -0.155
[09:55:03.031]	 -0.165	 -0.165
[09:55:03.039]	 -0.175	 -0.165
[09:55:03.047]	 -0.195	 -0.135
[09:55:03.055]	 -0.185	 -0.065
[09:55:03.063]	  0.155	 -0.155
[09:55:03.070]	  1.065	 -0.635
[09:55:03.078]	  1.805	 -1.245
[09:55:03.086]	 -0.025	 -1.055
[09:55:03.094]	 -1.065	 -0.505
[09:55:03.102]	 -0.765	 -0.175
[09:55:03.109]	 -0.335	 -0.085
[09:55:03.117]	 -0.215	 -0.075
[09:55:03.125]	 -0.195	 -0.075
[09:55:03.133]	 -0.175	 -0.085
[09:55:03.141]	 -0.185	 -0.095
[09:55:03.148]	 -0.175	 -0.075
[09:55:03.156]	 -0.185	 -0.065
[09:55:03.164]	 -0.165	 -0.055
[09:55:03.172]	 -0.175	 -0.045
[09:55:03.180]	 -0.165	 -0.045
[09:55:03.188]	 -0.135	 -0.035
[09:55:03.195]	 -0.135	 -0.035
[09:55:03.203]	 -0.155	 -0.015
[09:55:03.211]	 -0.125	  0.005
[09:55:03.219]	 -0.125	  0.005
[09:55:03.227]	 -0.115	  0.025
[09:55:03.234]	 -0.105	  0.055
[09:55:03.242]	 -0.095	  0.085
[09:55:03.250]	 -0.065	  0.085
[09:55:03.258]	 -0.095	  0.095
[09:55:03.266]	 -0.115	  0.105
[09:55:03.273]	 -0.125	  0.115
[09:55:03.281]	 -0.145	  0.085
[09:55:03.289]	 -0.175	  0.075
[09:55:03.297]	 -0.195	  0.045
[09:55:03.305]	 -0.215	  0.045
[09:55:03.313]	 -0.215	  0.015
[09:55:03.320]	 -0.205	  0.015
[09:55:03.328]	 -0.165	  0.005
[09:55:03.336]	 -0.115	  0.015
[09:55:03.344]	 -0.115	 -0.015
[09:55:03.352]	 -0.095	 -0.035
[09:55:03.359]	 -0.105	 -0.065
[09:55:03.367]	 -0.115	 -0.075
[09:55:03.375]	 -0.115	 -0.085
[09:55:03.383]	 -0.135	 -0.105
[09:55:03.391]	 -0.145	 -0.095
[09:55:03.398]	 -0.125	 -0.095
[09:55:03.406]	 -0.135	 -0.085
[09:55:03.414]	 -0.115	 -0.085
[09:55:03.422]	 -0.115	 -0.075
[09:55:03.430]	 -0.095	 -0.075
[09:55:03.438]	 -0.085	 -0.075
[09:55:03.445]	 -0.105	 -0.085
[09:55:03.453]	 -0.105	 -0.075
[09:55:03.461]	 -0.095	 -0.075
[09:55:03.469]	 -0.095	 -0.075
[09:55:03.477]	 -0.095	 -0.085
[09:55:03.484]	 -0.105	 -0.085
[09:55:03.492]	 -0.115	 -0.085
[09:55:03.500]	 -0.105	 -0.095
[09:55:03.508]	 -0.115	 -0.105
[09:55:03.516]	 -0.115	 -0.115
[09:55:03.523]	 -0.135	 -0.105
[09:55:03.531]	 -0.145	 -0.105
[09:55:03.539]	 -0.135	 -0.075
[09:55:03.547]	 -0.105	 -0.055
[09:55:03.555]	 -0.075	 -0.035
[09:55:03.563]	 -0.045	 -0.015
[09:55:03.570]	 -0.045	 -0.025
[09:55:03.578]	 -0.005	 -0.055
[09:55:03.586]	  0.005	 -0.035
[09:55:03.594]	  0.015	 -0.045
[09:55:03.602]	  0.045	 -0.075
[09:55:03.609]	 -0.015	 -0.125
[09:55:03.617]	 -0.055	 -0.105
[09:55:03.625]	 -0.115	 -0.135
[09:55:03.633]	 -0.155	 -0.155
[09:55:03.641]	 -0.185	 -0.165
[09:55:03.648]	 -0.185	 -0.145
[09:55:03.656]	 -0.195	 -0.145
[09:55:03.664]	 -0.185	 -0.165
[09:55:03.672]	 -0.185	 -0.145
[09:55:03.680]	 -0.185	 -0.145
[09:55:03.688]	 -0.175	 -0.095
[09:55:03.695]	 -0.205	 -0.085
[09:55:03.703]	  0.015	 -0.105
[09:55:03.711]	  0.645	 -0.515
[09:55:03.719]	  1.675	 -1.025
[09:55:03.727]	  1.225	 -1.305
[09:55:03.734]	 -0.565	 -0.715
[09:55:03.742]	 -0.885	 -0.205
[09:55:03.750]	 -0.495	 -0.015
[09:55:03.758]	 -0.255	 -0.025
[09:55:03.766]	 -0.185	 -0.045
[09:55:03.773]	 -0.195	 -0.035
[09:55:03.781]	 -0.185	 -0.025
[09:55:03.789]	 -0.185	 -0.025
[09:55:03.797]	 -0.175	 -0.035
[09:55:03.805]	 -0.165	 -0.015
[09:55:03.813]	 -0.155	 -0.015
[09:55:03.820]	 -0.155	  0.005
[09:55:03.828]	 -0.145	 -0.005
[09:55:03.836]	 -0.145	  0.015
[09:55:03.844]	 -0.145	  0.015
[09:55:03.852]	 -0.135	  0.045
[09:55:03.859]	 -0.125	  0.055
[09:55:03.867]	 -0.115	  0.075
[09:55:03.875]	 -0.105	  0.075
[09:55:03.883]	 -0.105	  0.105
[09:55:03.891]	 -0.105	  0.125
[09:55:03.898]	 -0.095	  0.155
[09:55:03.906]	 -0.085	  0.165
[09:55:03.914]	 -0.095	  0.175
[09:55:03.922]	 -0.095	  0.175
[09:55:03.930]	 -0.115	  0.155
[09:55:03.938]	 -0.135	  0.155
[09:55:03.945]	 -0.145	  0.115
[09:55:03.953]	 -0.165	  0.105
[09:55:03.961]	 -0.165	  0.115
[09:55:03.969]	 -0.145	  0.095
[09:55:03.977]	 -0.145	  0.065
[09:55:03.984]	 -0.115	  0.045
[09:55:03.992]	 -0.095	  0.025
[09:55:04.000]	 -0.095	 -0.025
[09:55:04.008]	 -0.095	 -0.065
[09:55:04.016]	 -0.115	 -0.085
[09:55:04.023]	 -0.135	 -0.085
[09:55:04.031]	 -0.145	 -0.095
[09:55:04.039]	 -0.145	 -0.095
[09:55:04.047]	 -0.145	 -0.095
[09:55:04.055]	 -0.125	 -0.075
[09:55:04.063]	 -0.135	 -0.075
[09:55:04.070]	 -0.115	 -0.075
[09:55:04.078]	 -0.135	 -0.075
[09:55:04.086]	 -0.135	 -0.075
[09:55:04.094]	 -0.125	 -0.055
[09:55:04.102]	 -0.115	 -0.065
[09:55:04.109]	 -0.115	 -0.075
[09:55:04.117]	 -0.125	 -0.075
[09:55:04.125]	 -0.115	 -0.065
[09:55:04.133]	 -0.125	 -0.075
[09:55:04.141]	 -0.125	 -0.085
[09:55:04.148]	 -0.125	 -0.085
[09:55:04.156]	 -0.135	 -0.075
[09:55:04.164]	 -0.155	 -0.075
[09:55:04.172]	 -0.135	 -0.085
[09:55:04.180]	 -0.135	 -0.085
[09:55:04.188]	 -0.155	 -0.085
[09:55:04.195]	 -0.155	 -0.055
[09:55:04.203]	 -0.125	 -0.025
[09:55:04.211]	 -0.075	 -0.015
[09:55:04.219]	 -0.055	  0.005
[09:55:04.227]	 -0.025	  0.005
[09:55:04.234]	 -0.015	 -0.015
[09:55:04.242]	 -0.005	 -0.015
[09:55:04.250]	  0.015	 -0.015
[09:55:04.258]	  0.055	 -0.025
[09:55:04.266]	  0.015	 -0.075
[09:55:04.273]	 -0.075	 -0.065
[09:55:04.281]	 -0.125	 -0.095
[09:55:04.289]	 -0.155	 -0.115
[09:55:04.297]	 -0.175	 -0.115
[09:55:04.305]	 -0.185	 -0.115
[09:55:04.313]	 -0.205	 -0.105
[09:55:04.320]	 -0.175	 -0.115
[09:55:04.328]	 -0.185	 -0.115
[09:55:04.336]	 -0.165	 -0.115
[09:55:04.344]	 -0.175	 -0.055
[09:55:04.352]	 -0.195	 -0.025
[09:55:04.359]	  0.055	 -0.065
[09:55:04.367]	  0.915	 -0.505
[09:55:04.375]	  2.015	 -1.065
[09:55:04.383]	  0.625	 -1.045
[09:55:04.391]	 -0.955	 -0.415
[09:55:04.398]	 -0.785	 -0.075
[09:55:04.406]	 -0.375	  0.025
[09:55:04.414]	 -0.215	  0.005
[09:55:04.422]	 -0.195	  0.005
[09:55:04.430]	 -0.205	  0.005
[09:55:04.438]	 -0.195	  0.005
[09:55:04.445]	 -0.195	  0.005
[09:55:04.453]	 -0.185	  0.005
[09:55:04.461]	 -0.165	  0.015
[09:55:04.469]	 -0.175	  0.025
[09:55:04.477]	 -0.165	  0.025
[09:55:04.484]	 -0.165	  0.045
[09:55:04.492]	 -0.135	  0.045
[09:55:04.500]	 -0.115	  0.065
[09:55:04.508]	 -0.115	  0.075
[09:55:04.516]	 -0.115	  0.095
[09:55:04.523]	 -0.105	  0.105
[09:55:04.531]	 -0.095	  0.125
[09:55:04.539]	 -0.085	  0.145
[09:55:04.547]	 -0.065	  0.165
[09:55:04.555]	 -0.075	  0.195
[09:55:04.563]	 -0.085	  0.195
[09:55:04.570]	 -0.085	  0.185
[09:55:04.578]	 -0.095	  0.175
[09:55:04.586]	 -0.115	  0.175
[09:55:04.594]	 -0.145	  0.155
[09:55:04.602]	 -0.145	  0.135
[09:55:04.609]	 -0.145	  0.115
[09:55:04.617]	 -0.135	  0.115
[09:55:04.625]	 -0.105	  0.095
[09:55:04.633]	 -0.085	  0.075
[09:55:04.641]	 -0.055	  0.035
[09:55:04.648]	 -0.055	 -0.005
[09:55:04.656]	 -0.095	 -0.025
[09:55:04.664]	 -0.095	 -0.035
[09:55:04.672]	 -0.115	 -0.055
[09:55:04.680]	 -0.095	 -0.055
[09:55:04.688]	 -0.095	 -0.055
[09:55:04.695]	 -0.115	 -0.055
[09:55:04.703]	 -0.115	 -0.045
[09:55:04.711]	 -0.105	 -0.055
[09:55:04.719]	 -0.095	 -0.055
[09:55:04.727]	 -0.085	 -0.055
[09:55:04.734]	 -0.105	 -0.045
[09:55:04.742]	 -0.085	 -0.035
[09:55:04.750]	 -0.075	 -0.055
[09:55:04.758]	 -0.085	 -0.055
[09:55:04.766]	 -0.085	 -0.065
[09:55:04.773]	 -0.095	 -0.055
[09:55:04.781]	 -0.105	 -0.065
[09:55:04.789]	 -0.105	 -0.075
[09:55:04.797]	 -0.095	 -0.075
[09:55:04.805]	 -0.095	 -0.075
[09:55:04.813]	 -0.115	 -0.085
[09:55:04.820]	 -0.115	 -0.095
[09:55:04.828]	 -0.115	 -0.095
[09:55:04.836]	 -0.115	 -0.095
[09:55:04.844]	 -0.115	 -0.075
[09:55:04.852]	 -0.115	 -0.095
[09:55:04.859]	 -0.105	 -0.075
[09:55:04.867]	 -0.095	 -0.045
[09:55:04.875]	 -0.075	 -0.015
[09:55:04.883]	 -0.035	 -0.025
[09:55:04.891]	 -0.015	 -0.025
[09:55:04.898]	  0.005	 -0.035
[09:55:04.906]	  0.015	 -0.035
[09:55:04.914]	  0.025	 -0.035
[09:55:04.922]	  0.065	 -0.035
[09:55:04.930]	  0.085	 -0.115
[09:55:04.938]	 -0.025	 -0.095
[09:55:04.945]	 -0.065	 -0.125
[09:55:04.953]	 -0.095	 -0.155
[09:55:04.961]	 -0.135	 -0.155
[09:55:04.969]	 -0.135	 -0.155
[09:55:04.977]	 -0.165	 -0.155
[09:55:04.984]	 -0.145	 -0.165
[09:55:04.992]	 -0.145	 -0.155
[09:55:05.000]	 -0.145	 -0.155
[09:55:05.008]	 -0.125	 -0.135
[09:55:05.016]	 -0.165	 -0.095
[09:55:05.023]	 -0.055	 -0.005
[09:55:05.031]	  0.395	 -0.285
[09:55:05.039]	  1.305	 -0.775
[09:55:05.047]	  1.915	 -1.345
[09:55:05.055]	  0.075	 -1.035
[09:55:05.063]	 -0.995	 -0.415
[09:55:05.070]	 -0.685	 -0.085
[09:55:05.078]	 -0.295	 -0.035
[09:55:05.086]	 -0.165	 -0.035
[09:55:05.094]	 -0.155	 -0.045
[09:55:05.102]	 -0.175	 -0.045
[09:55:05.109]	 -0.165	 -0.045
[09:55:05.117]	 -0.145	 -0.035
[09:55:05.125]	 -0.145	 -0.035
[09:55:05.133]	 -0.135	 -0.025
[09:55:05.141]	 -0.135	 -0.015
[09:55:05.148]	 -0.115	 -0.005
[09:55:05.156]	 -0.115	 -0.005
[09:55:05.164]	 -0.095	  0.005
[09:55:05.172]	 -0.095	  0.015
[09:55:05.180]	 -0.075	  0.045
[09:55:05.188]	 -0.075	  0.065
[09:55:05.195]	 -0.065	  0.065
[09:55:05.203]	 -0.055	  0.095
[09:55:05.211]	 -0.055	  0.115
[09:55:05.219]	 -0.055	  0.125
[09:55:05.227]	 -0.045	  0.135
[09:55:05.234]	 -0.045	  0.145
[09:55:05.242]	 -0.055	  0.155
[09:55:05.250]	 -0.065	  0.135
[09:55:05.258]	 -0.085	  0.105
[09:55:05.266]	 -0.105	  0.065
[09:55:05.273]	 -0.115	  0.095
[09:55:05.281]	 -0.135	  0.065
[09:55:05.289]	 -0.115	  0.055
[09:55:05.297]	 -0.065	  0.035
[09:55:05.305]	 -0.045	  0.035
[09:55:05.313]	 -0.045	  0.005
[09:55:05.320]	 -0.025	 -0.025
[09:55:05.328]	 -0.035	 -0.055
[09:55:05.336]	 -0.055	 -0.075
[09:55:05.344]	 -0.075	 -0.075
[09:55:05.352]	 -0.085	 -0.095
[09:55:05.359]	 -0.075	 -0.085
[09:55:05.367]	 -0.055	 -0.085
[09:55:05.375]	 -0.075	 -0.075
[09:55:05.383]	 -0.075	 -0.075
[09:55:05.391]	 -0.055	 -0.055
[09:55:05.398]	 -0.045	 -0.065
[09:55:05.406]	 -0.045	 -0.065
[09:55:05.414]	 -0.065	 -0.075
[09:55:05.422]	 -0.055	 -0.065
[09:55:05.430]	 -0.035	 -0.075
[09:55:05.438]	 -0.045	 -0.075
[09:55:05.445]	 -0.055	 -0.075
[09:55:05.453]	 -0.045	 -0.075
[09:55:05.461]	 -0.045	 -0.065
[09:55:05.469]	 -0.035	 -0.085
[09:55:05.477]	 -0.085	 -0.085
[09:55:05.484]	 -0.065	 -0.085
[09:55:05.492]	 -0.065	 -0.075
[09:55:05.500]	 -0.065	 -0.085
[09:55:05.508]	 -0.075	 -0.075
[09:55:05.516]	 -0.095	 -0.065
[09:55:05.523]	 -0.065	 -0.015
[09:55:05.531]	 -0.005	 -0.025
[09:55:05.539]	 -0.015	  0.015
[09:55:05.547]	  0.025	  0.005
[09:55:05.555]	  0.045	  0.015
[09:55:05.563]	  0.085	  0.005
[09:55:05.570]	  0.125	  0.005
[09:55:05.578]	  0.135	 -0.035
[09:55:05.586]	  0.045	 -0.055
[09:55:05.594]	 -0.005	 -0.055
[09:55:05.602]	 -0.055	 -0.085
[09:55:05.609]	 -0.105	 -0.105
[09:55:05.617]	 -0.105	 -0.105
[09:55:05.625]	 -0.125	 -0.095
[09:55:05.633]	 -0.115	 -0.095
[09:55:05.641]	 -0.135	 -0.105
[09:55:05.648]	 -0.125	 -0.105
[09:55:05.656]	 -0.125	 -0.095
[09:55:05.664]	 -0.125	 -0.075
[09:55:05.672]	 -0.155	 -0.055
[09:55:05.680]	 -0.015	  0.015
[09:55:05.688]	  0.525	 -0.225
[09:55:05.695]	  1.625	 -0.675
[09:55:05.703]	  1.435	 -1.015
[09:55:05.711]	 -0.595	 -0.675
[09:55:05.719]	 -1.035	 -0.255
[09:55:05.727]	 -0.575	 -0.065
[09:55:05.734]	 -0.205	 -0.025
[09:55:05.742]	 -0.145	 -0.015
[09:55:05.750]	 -0.125	 -0.025
[09:55:05.758]	 -0.115	 -0.025
[09:55:05.766]	 -0.115	 -0.015
[09:55:05.773]	 -0.135	 -0.005
[09:55:05.781]	 -0.125	 -0.005
[09:55:05.789]	 -0.115	  0.005
[09:55:05.797]	 -0.095	 -0.005
[09:55:05.805]	 -0.095	 -0.005
[09:55:05.813]	 -0.095	  0.015
[09:55:05.820]	 -0.075	  0.015
[09:55:05.828]	 -0.065	  0.025
[09:55:05.836]	 -0.055	  0.045
[09:55:05.844]	 -0.035	  0.055
[09:55:05.852]	 -0.025	  0.065
[09:55:05.859]	 -0.035	  0.075
[09:55:05.867]	 -0.025	  0.105
[09:55:05.875]	 -0.015	  0.105
[09:55:05.883]	 -0.025	  0.105
[09:55:05.891]	 -0.035	  0.095
[09:55:05.898]	 -0.055	  0.105
[09:55:05.906]	 -0.085	  0.085
[09:55:05.914]	 -0.105	  0.045
[09:55:05.922]	 -0.115	  0.025
[09:55:05.930]	 -0.125	  0.025
[09:55:05.938]	 -0.105	  0.025
[09:55:05.945]	 -0.065	  0.015
[09:55:05.953]	 -0.045	 -0.005
[09:55:05.961]	 -0.025	 -0.025
[09:55:05.969]	 -0.025	 -0.035
[09:55:05.977]	 -0.025	 -0.065
[09:55:05.984]	 -0.035	 -0.085
[09:55:05.992]	 -0.045	 -0.105
[09:55:06.000]	 -0.045	 -0.105
[09:55:06.008]	 -0.045	 -0.105
[09:55:06.016]	 -0.055	 -0.105
[09:55:06.023]	 -0.035	 -0.095
[09:55:06.031]	 -0.025	 -0.105
[09:55:06.039]	 -0.025	 -0.105
[09:55:06.047]	 -0.015	 -0.095
[09:55:06.055]	 -0.015	 -0.085
[09:55:06.063]	 -0.025	 -0.085
[09:55:06.070]	 -0.005	 -0.085
[09:55:06.078]	 -0.015	 -0.095
[09:55:06.086]	 -0.025	 -0.085
[09:55:06.094]	 -0.025	 -0.085
[09:55:06.102]	 -0.035	 -0.095
[09:55:06.109]	 -0.015	 -0.095
[09:55:06.117]	 -0.025	 -0.095
[09:55:06.125]	 -0.045	 -0.105
[09:55:06.133]	 -0.045	 -0.115
[09:55:06.141]	 -0.045	 -0.105
[09:55:06.148]	 -0.055	 -0.095
[09:55:06.156]	 -0.065	 -0.095
[09:55:06.164]	 -0.055	 -0.095
[09:55:06.172]	 -0.055	 -0.065
[09:55:06.180]	 -0.015	 -0.035
[09:55:06.188]	 -0.025	 -0.015
[09:55:06.195]	  0.035	 -0.025
[09:55:06.203]	  0.065	 -0.045
[09:55:06.211]	  0.075	 -0.055
[09:55:06.219]	  0.105	 -0.035
[09:55:06.227]	  0.095	 -0.035
[09:55:06.234]	  0.145	 -0.085
[09:55:06.242]	  0.035	 -0.095
[09:55:06.250]	 -0.025	 -0.115
[09:55:06.258]	 -0.065	 -0.135
[09:55:06.266]	 -0.105	 -0.145
[09:55:06.273]	 -0.105	 -0.135
[09:55:06.281]	 -0.125	 -0.155
[09:55:06.289]	 -0.145	 -0.145
[09:55:06.297]	 -0.135	 -0.155
[09:55:06.305]	 -0.125	 -0.145
[09:55:06.313]	 -0.115	 -0.145
[09:55:06.320]	 -0.125	 -0.085
[09:55:06.328]	 -0.115	 -0.055
[09:55:06.336]	  0.225	 -0.165
[09:55:06.344]	  1.015	 -0.615
[09:55:06.352]	  2.135	 -1.225
[09:55:06.359]	  0.785	 -1.225
[09:55:06.367]	 -0.935	 -0.585
[09:55:06.375]	 -0.825	 -0.155
[09:55:06.383]	 -0.335	 -0.035
[09:55:06.391]	 -0.145	 -0.055
[09:55:06.398]	 -0.125	 -0.065
[09:55:06.406]	 -0.135	 -0.065
[09:55:06.414]	 -0.155	 -0.065
[09:55:06.422]	 -0.135	 -0.055
[09:55:06.430]	 -0.105	 -0.055
[09:55:06.438]	 -0.125	 -0.035
[09:55:06.445]	 -0.105	 -0.045
[09:55:06.453]	 -0.105	 -0.025
[09:55:06.461]	 -0.095	 -0.025
[09:55:06.469]	 -0.095	 -0.015
[09:55:06.477]	 -0.085	 -0.005
[09:55:06.484]	 -0.065	  0.015
[09:55:06.492]	 -0.065	  0.045
[09:55:06.500]	 -0.045	  0.055
[09:55:06.508]	 -0.035	  0.075
[09:55:06.516]	 -0.025	  0.115
[09:55:06.523]	 -0.025	  0.155
[09:55:06.531]	 -0.005	  0.155
[09:55:06.539]	 -0.015	  0.175
[09:55:06.547]	 -0.015	  0.175
[09:55:06.555]	 -0.035	  0.185
[09:55:06.563]	 -0.045	  0.165
[09:55:06.570]	 -0.065	  0.145
[09:55:06.578]	 -0.075	  0.115
[09:55:06.586]	 -0.085	  0.115
[09:55:06.594]	 -0.085	  0.095
[09:55:06.602]	 -0.065	  0.085
[09:55:06.609]	 -0.045	  0.045
[09:55:06.617]	 -0.015	  0.015
[09:55:06.625]	 -0.005	 -0.025
[09:55:06.633]	 -0.015	 -0.055
[09:55:06.641]	 -0.035	 -0.075
[09:55:06.648]	 -0.025	 -0.065
[09:55:06.656]	 -0.055	 -0.095
[09:55:06.664]	 -0.045	 -0.085
[09:55:06.672]	 -0.045	 -0.085
[09:55:06.680]	 -0.045	 -0.075
[09:55:06.688]	 -0.035	 -0.075
[09:55:06.695]	 -0.025	 -0.075
[09:55:06.703]	 -0.035	 -0.065
[09:55:06.711]	 -0.035	 -0.065
[09:55:06.719]	 -0.035	 -0.075
[09:55:06.727]	 -0.025	 -0.075
[09:55:06.734]	 -0.035	 -0.075
[09:55:06.742]	 -0.045	 -0.075
[09:55:06.750]	 -0.045	 -0.065
[09:55:06.758]	 -0.045	 -0.095
[09:55:06.766]	 -0.045	 -0.095
[09:55:06.773]	 -0.065	 -0.095
[09:55:06.781]	 -0.055	 -0.095
[09:55:06.789]	 -0.055	 -0.085
[09:55:06.797]	 -0.065	 -0.105
[09:55:06.805]	 -0.075	 -0.095
[09:55:06.813]	 -0.075	 -0.095
[09:55:06.820]	 -0.065	 -0.075
[09:55:06.828]	 -0.055	 -0.045
[09:55:06.836]	 -0.025	 -0.035
[09:55:06.844]	  0.015	 -0.015
[09:55:06.852]	  0.045	 -0.025
[09:55:06.859]	  0.065	 -0.045
[09:55:06.867]	  0.075	 -0.045
[09:55:06.875]	  0.095	 -0.025
[09:55:06.883]	  0.105	 -0.035
[09:55:06.891]	  0.145	 -0.085
[09:55:06.898]	  0.035	 -0.095
[09:55:06.906]	 -0.005	 -0.115
[09:55:06.914]	 -0.065	 -0.155
[09:55:06.922]	 -0.105	 -0.145
[09:55:06.930]	 -0.105	 -0.135
[09:55:06.938]	 -0.095	 -0.135
[09:55:06.945]	 -0.105	 -0.165
[09:55:06.953]	 -0.105	 -0.145
[09:55:06.961]	 -0.095	 -0.135
[09:55:06.969]	 -0.075	 -0.125
[09:55:06.977]	 -0.125	 -0.085
[09:55:06.984]	 -0.065	  0.015
[09:55:06.992]	  0.435	 -0.235
[09:55:07.000]	  1.335	 -0.735
[09:55:07.008]	  2.065	 -1.345
[09:55:07.016]	  0.325	 -1.085
[09:55:07.023]	 -0.925	 -0.425
[09:55:07.031]	 -0.685	 -0.075
[09:55:07.039]	 -0.285	 -0.015
[09:55:07.047]	 -0.125	 -0.045
[09:55:07.055]	 -0.105	 -0.035
[09:55:07.063]	 -0.125	 -0.035
[09:55:07.070]	 -0.115	 -0.025
[09:55:07.078]	 -0.095	 -0.025
[09:55:07.086]	 -0.095	 -0.015
[09:55:07.094]	 -0.105	 -0.015
[09:55:07.102]	 -0.095	 -0.005
[09:55:07.109]	 -0.075	 -0.005
[09:55:07.117]	 -0.065	  0.015
[09:55:07.125]	 -0.055	  0.015
[09:55:07.133]	 -0.075	  0.025
[09:55:07.141]	 -0.055	  0.025
[09:55:07.148]	 -0.035	  0.065
[09:55:07.156]	 -0.025	  0.075
[09:55:07.164]	 -0.035	  0.085
[09:55:07.172]	 -0.015	  0.105
[09:55:07.180]	  0.005	  0.135
[09:55:07.188]	  0.015	  0.155
[09:55:07.195]	  0.015	  0.145
[09:55:07.203]	 -0.005	  0.155
[09:55:07.211]	 -0.005	  0.155
[09:55:07.219]	 -0.035	  0.155
[09:55:07.227]	 -0.045	  0.115
[09:55:07.234]	 -0.055	  0.085
[09:55:07.242]	 -0.065	  0.095
[09:55:07.250]	 -0.055	  0.085
[09:55:07.258]	 -0.025	  0.065
[09:55:07.266]	  0.005	  0.035
[09:55:07.273]	  0.015	  0.005
[09:55:07.281]	  0.015	 -0.035
[09:55:07.289]	  0.005	 -0.065
[09:55:07.297]	 -0.025	 -0.075
[09:55:07.305]	 -0.015	 -0.085
[09:55:07.313]	 -0.015	 -0.085
[09:55:07.320]	 -0.015	 -0.095
[09:55:07.328]	 -0.015	 -0.085
[09:55:07.336]	 -0.015	 -0.065
[09:55:07.344]	  0.005	 -0.075
[09:55:07.352]	 -0.005	 -0.075
[09:55:07.359]	 -0.005	 -0.075
[09:55:07.367]	 -0.005	 -0.055
[09:55:07.375]	  0.005	 -0.065
[09:55:07.383]	  0.005	 -0.075
[09:55:07.391]	  0.005	 -0.085
[09:55:07.398]	  0.005	 -0.065
[09:55:07.406]	 -0.005	 -0.075
[09:55:07.414]	 -0.005	 -0.085
[09:55:07.422]	 -0.005	 -0.085
[09:55:07.430]	 -0.005	 -0.085
[09:55:07.438]	 -0.015	 -0.085
[09:55:07.445]	 -0.015	 -0.085
[09:55:07.453]	 -0.025	 -0.085
[09:55:07.461]	 -0.025	 -0.065
[09:55:07.469]	 -0.025	 -0.025
[09:55:07.477]	  0.015	 -0.005
[09:55:07.484]	  0.025	  0.005
[09:55:07.492]	  0.065	  0.005
[09:55:07.500]	  0.095	 -0.005
[09:55:07.508]	  0.115	 -0.005
[09:55:07.516]	  0.145	 -0.005
[09:55:07.523]	  0.185	 -0.045
[09:55:07.531]	  0.105	 -0.085
[09:55:07.539]	  0.025	 -0.085
[09:55:07.547]	 -0.015	 -0.115
[09:55:07.555]	 -0.055	 -0.105
[09:55:07.563]	 -0.065	 -0.115
[09:55:07.570]	 -0.085	 -0.115
[09:55:07.578]	 -0.095	 -0.125
[09:55:07.586]	 -0.095	 -0.115
[09:55:07.594]	 -0.095	 -0.115
[09:55:07.602]	 -0.085	 -0.125
[09:55:07.609]	 -0.075	 -0.105
[09:55:07.617]	 -0.125	 -0.065
[09:55:07.625]	 -0.035	 -0.005
[09:55:07.633]	  0.435	 -0.245
[09:55:07.641]	  1.425	 -0.705
[09:55:07.648]	  1.795	 -1.185
[09:55:07.656]	 -0.115	 -0.875
[09:55:07.664]	 -0.985	 -0.355
[09:55:07.672]	 -0.625	 -0.105
[09:55:07.680]	 -0.235	 -0.045
[09:55:07.688]	 -0.115	 -0.035
[09:55:07.695]	 -0.105	 -0.035
[09:55:07.703]	 -0.105	 -0.025
[09:55:07.711]	 -0.095	 -0.025
[09:55:07.719]	 -0.085	 -0.015
[09:55:07.727]	 -0.095	 -0.015
[09:55:07.734]	 -0.095	 -0.005
[09:55:07.742]	 -0.075	  0.015
[09:55:07.750]	 -0.055	  0.005
[09:55:07.758]	 -0.045	  0.025
[09:55:07.766]	 -0.045	  0.035
[09:55:07.773]	 -0.045	  0.045
[09:55:07.781]	 -0.025	  0.055
[09:55:07.789]	 -0.015	  0.075
[09:55:07.797]	 -0.005	  0.085
[09:55:07.805]	  0.005	  0.115
[09:55:07.813]	 -0.005	  0.125
[09:55:07.820]	  0.025	  0.135
[09:55:07.828]	  0.015	  0.155
[09:55:07.836]	  0.015	  0.175
[09:55:07.844]	 -0.005	  0.175
[09:55:07.852]	 -0.015	  0.165
[09:55:07.859]	 -0.055	  0.145
[09:55:07.867]	 -0.065	  0.135
[09:55:07.875]	 -0.075	  0.125
[09:55:07.883]	 -0.085	  0.095
[09:55:07.891]	 -0.075	  0.095
[09:55:07.898]	 -0.035	  0.085
[09:55:07.906]	 -0.015	  0.065
[09:55:07.914]	 -0.005	  0.055
[09:55:07.922]	  0.005	  0.025
[09:55:07.930]	 -0.005	  0.005
[09:55:07.938]	 -0.035	 -0.015
[09:55:07.945]	 -0.035	 -0.015
[09:55:07.953]	 -0.035	 -0.025
[09:55:07.961]	 -0.025	 -0.015
[09:55:07.969]	 -0.025	 -0.015
[09:55:07.977]	 -0.025	 -0.025
[09:55:07.984]	 -0.015	 -0.015
[09:55:07.992]	 -0.015	 -0.005
[09:55:08.000]	  0.005	 -0.005
[09:55:08.008]	 -0.005	 -0.015
[09:55:08.016]	 -0.005	 -0.005
[09:55:08.023]	  0.005	 -0.005
[09:55:08.031]	 -0.005	 -0.015
[09:55:08.039]	 -0.005	 -0.015
[09:55:08.047]	 -0.005	 -0.025
[09:55:08.055]	  0.005	 -0.025
[09:55:08.063]	 -0.015	 -0.035
[09:55:08.070]	 -0.015	 -0.045
[09:55:08.078]	 -0.025	 -0.055
[09:55:08.086]	 -0.035	 -0.045
[09:55:08.094]	 -0.045	 -0.045
[09:55:08.102]	 -0.055	 -0.055
[09:55:08.109]	 -0.045	 -0.055
[09:55:08.117]	 -0.035	 -0.025
[09:55:08.125]	  0.005	  0.005
[09:55:08.133]	  0.025	  0.025
[09:55:08.141]	  0.055	  0.015
[09:55:08.148]	  0.075	  0.005
[09:55:08.156]	  0.085	 -0.025
[09:55:08.164]	  0.105	 -0.015
[09:55:08.172]	  0.105	 -0.005
[09:55:08.180]	  0.145	 -0.055
[09:55:08.188]	  0.055	 -0.075
[09:55:08.195]	 -0.005	 -0.075
[09:55:08.203]	 -0.035	 -0.105
[09:55:08.211]	 -0.075	 -0.125
[09:55:08.219]	 -0.085	 -0.125
[09:55:08.227]	 -0.105	 -0.125
[09:55:08.234]	 -0.105	 -0.135
[09:55:08.242]	 -0.115	 -0.125
[09:55:08.250]	 -0.095	 -0.125
[09:55:08.258]	 -0.085	 -0.125
[09:55:08.266]	 -0.075	 -0.085
[09:55:08.273]	 -0.125	 -0.045
[09:55:08.281]	  0.075	 -0.025
[09:55:08.289]	  0.645	 -0.505
[09:55:08.297]	  1.725	 -0.965
[09:55:08.305]	  1.695	 -1.385
[09:55:08.313]	 -0.495	 -0.825
[09:55:08.320]	 -0.955	 -0.215
[09:55:08.328]	 -0.465	 -0.015
[09:55:08.336]	 -0.175	 -0.005
[09:55:08.344]	 -0.115	 -0.025
[09:55:08.352]	 -0.125	 -0.025
[09:55:08.359]	 -0.125	 -0.015
[09:55:08.367]	 -0.125	 -0.015
[09:55:08.375]	 -0.115	  0.005
[09:55:08.383]	 -0.115	 -0.005
[09:55:08.391]	 -0.115	  0.005
[09:55:08.398]	 -0.095	  0.005
[09:55:08.406]	 -0.085	  0.025
[09:55:08.414]	 -0.085	  0.035
[09:55:08.422]	 -0.075	  0.045
[09:55:08.430]	 -0.065	  0.065
[09:55:08.438]	 -0.055	  0.070
[09:55:08.445]	 -0.045	  0.080
[09:55:08.453]	 -0.045	  0.120
[09:55:08.461]	 -0.035	  0.140
[09:55:08.469]	 -0.015	  0.160
[09:55:08.477]	 -0.015	  0.170
[09:55:08.484]	 -0.005	  0.180
[09:55:08.492]	 -0.035	  0.200
[09:55:08.500]	 -0.045	  0.210
[09:55:08.508]	 -0.055	  0.190
[09:55:08.516]	 -0.065	  0.170
[09:55:08.523]	 -0.075	  0.160
[09:55:08.531]	 -0.115	  0.140
[09:55:08.539]	 -0.115	  0.140
[09:55:08.547]	 -0.095	  0.110
[09:55:08.555]	 -0.055	  0.090
[09:55:08.563]	 -0.035	  0.040
[09:55:08.570]	 -0.035	  0.010
[09:55:08.578]	 -0.035	 -0.020
[09:55:08.586]	 -0.065	 -0.040
[09:55:08.594]	 -0.075	 -0.050
[09:55:08.602]	 -0.075	 -0.060
[09:55:08.609]	 -0.065	 -0.060
[09:55:08.617]	 -0.065	 -0.060
[09:55:08.625]	 -0.065	 -0.045
[09:55:08.633]	 -0.055	 -0.045
[09:55:08.641]	 -0.055	 -0.055
[09:55:08.648]	 -0.065	 -0.055
[09:55:08.656]	 -0.065	 -0.055
[09:55:08.664]	 -0.055	 -0.045
[09:55:08.672]	 -0.055	 -0.055
[09:55:08.680]	 -0.055	 -0.065
[09:55:08.688]	 -0.065	 -0.065
[09:55:08.695]	 -0.075	 -0.065
[09:55:08.703]	 -0.065	 -0.065
[09:55:08.711]	 -0.055	 -0.065
[09:55:08.719]	 -0.085	 -0.075
[09:55:08.727]	 -0.065	 -0.065
[09:55:08.734]	 -0.075	 -0.075
[09:55:08.742]	 -0.065	 -0.075
[09:55:08.750]	 -0.075	 -0.075
[09:55:08.758]	 -0.085	 -0.085
[09:55:08.766]	 -0.075	 -0.025
[09:55:08.773]	 -0.055	 -0.005
[09:55:08.781]	 -0.025	 -0.005
[09:55:08.789]	  0.025	 -0.005
[09:55:08.797]	  0.045	 -0.025
[09:55:08.805]	  0.045	 -0.025
[09:55:08.813]	  0.085	 -0.015
[09:55:08.820]	  0.075	 -0.015
[09:55:08.828]	  0.105	 -0.075
[09:55:08.836]	  0.005	 -0.085
[09:55:08.844]	 -0.035	 -0.085
[09:55:08.852]	 -0.075	 -0.125
[09:55:08.859]	 -0.115	 -0.135
[09:55:08.867]	 -0.145	 -0.125
[09:55:08.875]	 -0.145	 -0.125
[09:55:08.883]	 -0.145	 -0.125
[09:55:08.891]	 -0.145	 -0.145
[09:55:08.898]	 -0.135	 -0.125
[09:55:08.906]	 -0.145	 -0.125
[09:55:08.914]	 -0.155	 -0.095
[09:55:08.922]	 -0.135	 -0.045
[09:55:08.930]	  0.145	 -0.125
[09:55:08.938]	  0.895	 -0.555
[09:55:08.945]	  1.955	 -1.115
[09:55:08.953]	  0.875	 -1.225
[09:55:08.961]	 -0.755	 -0.625
[09:55:08.969]	 -0.815	 -0.135
[09:55:08.977]	 -0.395	 -0.005
[09:55:08.984]	 -0.195	 -0.015
[09:55:08.992]	 -0.155	 -0.025
[09:55:09.000]	 -0.145	 -0.035
[09:55:09.008]	 -0.155	 -0.025
[09:55:09.016]	 -0.145	 -0.015
[09:55:09.023]	 -0.145	 -0.015
[09:55:09.031]	 -0.135	 -0.015
[09:55:09.039]	 -0.125	 -0.015
[09:55:09.047]	 -0.125	 -0.005
[09:55:09.055]	 -0.115	  0.025
[09:55:09.063]	 -0.105	  0.025
[09:55:09.070]	 -0.105	  0.025
[09:55:09.078]	 -0.105	  0.025
[09:55:09.086]	 -0.065	  0.065
[09:55:09.094]	 -0.085	  0.085
[09:55:09.102]	 -0.055	  0.085
[09:55:09.109]	 -0.045	  0.095
[09:55:09.117]	 -0.035	  0.125
[09:55:09.125]	 -0.035	  0.145
[09:55:09.133]	 -0.045	  0.155
[09:55:09.141]	 -0.055	  0.155
[09:55:09.148]	 -0.055	  0.155
[09:55:09.156]	 -0.075	  0.145
[09:55:09.164]	 -0.095	  0.135
[09:55:09.172]	 -0.115	  0.115
[09:55:09.180]	 -0.125	  0.105
[09:55:09.188]	 -0.095	  0.095
[09:55:09.195]	 -0.085	  0.075
[09:55:09.203]	 -0.075	  0.065
[09:55:09.211]	 -0.045	  0.045
[09:55:09.219]	 -0.065	  0.005
[09:55:09.227]	 -0.065	 -0.025
[09:55:09.234]	 -0.065	 -0.055
[09:55:09.242]	 -0.105	 -0.055
[09:55:09.250]	 -0.085	 -0.075
[09:55:09.258]	 -0.085	 -0.085
[09:55:09.266]	 -0.095	 -0.075
[09:55:09.273]	 -0.095	 -0.065
[09:55:09.281]	 -0.075	 -0.075
[09:55:09.289]	 -0.075	 -0.075
[09:55:09.297]	 -0.085	 -0.075
[09:55:09.305]	 -0.085	 -0.065
[09:55:09.313]	 -0.095	 -0.075
[09:55:09.320]	 -0.085	 -0.085
[09:55:09.328]	 -0.055	 -0.085
[09:55:09.336]	 -0.085	 -0.085
[09:55:09.344]	 -0.095	 -0.085
[09:55:09.352]	 -0.075	 -0.085
[09:55:09.359]	 -0.075	 -0.105
[09:55:09.367]	 -0.085	 -0.095
[09:55:09.375]	 -0.065	 -0.105
[09:55:09.383]	 -0.095	 -0.105
[09:55:09.391]	 -0.105	 -0.115
[09:55:09.398]	 -0.105	 -0.105
[09:55:09.406]	 -0.095	 -0.115
[09:55:09.414]	 -0.095	 -0.105
[09:55:09.422]	 -0.115	 -0.085
[09:55:09.430]	 -0.055	 -0.045
[09:55:09.438]	 -0.045	 -0.045
[09:55:09.445]	 -0.005	 -0.045
[09:55:09.453]	 -0.005	 -0.045
[09:55:09.461]	  0.035	 -0.045
[09:55:09.469]	  0.055	 -0.045
[09:55:09.477]	  0.085	 -0.045
[09:55:09.484]	  0.105	 -0.065
[09:55:09.492]	  0.055	 -0.105
[09:55:09.500]	 -0.025	 -0.095
[09:55:09.508]	 -0.065	 -0.135
[09:55:09.516]	 -0.115	 -0.155
[09:55:09.523]	 -0.135	 -0.135
[09:55:09.531]	 -0.155	 -0.145
[09:55:09.539]	 -0.155	 -0.155
[09:55:09.547]	 -0.135	 -0.155
[09:55:09.555]	 -0.145	 -0.145
[09:55:09.563]	 -0.125	 -0.145
[09:55:09.570]	 -0.135	 -0.135
[09:55:09.578]	 -0.185	 -0.105
[09:55:09.586]	 -0.075	 -0.045
[09:55:09.594]	  0.365	 -0.195
[09:55:09.602]	  1.375	 -0.655
[09:55:09.609]	  1.875	 -1.185
[09:55:09.617]	 -0.115	 -0.985
[09:55:09.625]	 -1.065	 -0.455
[09:55:09.633]	 -0.725	 -0.155
[09:55:09.641]	 -0.315	 -0.065
[09:55:09.648]	 -0.175	 -0.065
[09:55:09.656]	 -0.165	 -0.075
[09:55:09.664]	 -0.135	 -0.075
[09:55:09.672]	 -0.155	 -0.075
[09:55:09.680]	 -0.145	 -0.065
[09:55:09.688]	 -0.155	 -0.065
[09:55:09.695]	 -0.135	 -0.075
[09:55:09.703]	 -0.135	 -0.055
[09:55:09.711]	 -0.135	 -0.035
[09:55:09.719]	 -0.135	 -0.035
[09:55:09.727]	 -0.115	 -0.035
[09:55:09.734]	 -0.095	 -0.015
[09:55:09.742]	 -0.115	 -0.005
[09:55:09.750]	 -0.105	  0.005
[09:55:09.758]	 -0.085	  0.005
[09:55:09.766]	 -0.055	  0.025
[09:55:09.773]	 -0.055	  0.055
[09:55:09.781]	 -0.075	  0.065
[09:55:09.789]	 -0.075	  0.085
[09:55:09.797]	 -0.075	  0.085
[09:55:09.805]	 -0.075	  0.095
[09:55:09.813]	 -0.115	  0.075
[09:55:09.820]	 -0.145	  0.065
[09:55:09.828]	 -0.155	  0.045
[09:55:09.836]	 -0.175	  0.015
[09:55:09.844]	 -0.175	  0.025
[09:55:09.852]	 -0.175	  0.015
[09:55:09.859]	 -0.115	 -0.005
[09:55:09.867]	 -0.065	 -0.005
[09:55:09.875]	 -0.055	 -0.025
[09:55:09.883]	 -0.055	 -0.045
[09:55:09.891]	 -0.055	 -0.085
[09:55:09.898]	 -0.075	 -0.105
[09:55:09.906]	 -0.095	 -0.115
[09:55:09.914]	 -0.095	 -0.135
[09:55:09.922]	 -0.105	 -0.115
[09:55:09.930]	 -0.095	 -0.115
[09:55:09.938]	 -0.085	 -0.105
[09:55:09.945]	 -0.065	 -0.115
[09:55:09.953]	 -0.065	 -0.105
[09:55:09.961]	 -0.065	 -0.095
[09:55:09.969]	 -0.075	 -0.095
[09:55:09.977]	 -0.065	 -0.115
[09:55:09.984]	 -0.055	 -0.115
[09:55:09.992]	 -0.055	 -0.115