     Time	   ECG1	   ECG2
(hh:mm:ss.mmm)	   (mV)	   (mV)
[09:50:00.000]	 -0.355	 -0.215
[09:50:00.008]	 -0.355	 -0.205
[09:50:00.016]	 -0.345	 -0.205
[09:50:00.023]	 -0.335	 -0.215
[09:50:00.031]	 -0.335	 -0.225
[09:50:00.039]	 -0.345	 -0.225
[09:50:00.047]	 -0.345	 -0.235
[09:50:00.055]	 -0.375	 -0.235
[09:50:00.063]	 -0.365	 -0.255
[09:50:00.070]	 -0.355	 -0.255
[09:50:00.078]	 -0.365	 -0.245
[09:50:00.086]	 -0.355	 -0.265
[09:50:00.094]	 -0.385	 -0.295
[09:50:00.102]	 -0.385	 -0.285
[09:50:00.109]	 -0.375	 -0.285
[09:50:00.117]	 -0.415	 -0.295
[09:50:00.125]	 -0.405	 -0.285
[09:50:00.133]	 -0.415	 -0.305
[09:50:00.141]	 -0.415	 -0.265
[09:50:00.148]	 -0.385	 -0.285
[09:50:00.156]	 -0.395	 -0.295
[09:50:00.164]	 -0.395	 -0.305
[09:50:00.172]	 -0.405	 -0.285
[09:50:00.180]	 -0.395	 -0.285
[09:50:00.188]	 -0.395	 -0.295
[09:50:00.195]	 -0.385	 -0.295
[09:50:00.203]	 -0.385	 -0.275
[09:50:00.211]	 -0.355	 -0.275
[09:50:00.219]	 -0.365	 -0.285
[09:50:00.227]	 -0.375	 -0.255
[09:50:00.234]	 -0.345	 -0.235
[09:50:00.242]	 -0.325	 -0.185
[09:50:00.250]	 -0.325	 -0.205
[09:50:00.258]	 -0.285	 -0.125
[09:50:00.266]	 -0.215	 -0.125
[09:50:00.273]	 -0.195	 -0.135
[09:50:00.281]	 -0.235	 -0.205
[09:50:00.289]	 -0.285	 -0.245
[09:50:00.297]	 -0.315	 -0.305
[09:50:00.305]	 -0.395	 -0.305
[09:50:00.313]	 -0.415	 -0.295
[09:50:00.320]	 -0.415	 -0.315
[09:50:00.328]	 -0.385	 -0.285
[09:50:00.336]	 -0.385	 -0.305
[09:50:00.344]	 -0.395	 -0.295
[09:50:00.352]	 -0.405	 -0.285
[09:50:00.359]	 -0.325	 -0.265
[09:50:00.367]	 -0.505	 -0.355
[09:50:00.375]	 -0.765	 -0.075
[09:50:00.383]	 -0.695	  0.325
[09:50:00.391]	  0.095	  0.125
[09:50:00.398]	  1.265	 -0.165
[09:50:00.406]	  2.455	  0.305
[09:50:00.414]	  3.025	 -0.135
[09:50:00.422]	  1.425	 -1.285
[09:50:00.430]	 -0.625	 -1.045
[09:50:00.438]	 -1.085	 -0.705
[09:50:00.445]	 -0.935	 -0.495
[09:50:00.453]	 -0.765	 -0.235
[09:50:00.461]	 -0.485	  0.045
[09:50:00.469]	 -0.375	  0.065
[09:50:00.477]	 -0.375	  0.065
[09:50:00.484]	 -0.325	  0.105
[09:50:00.492]	 -0.335	  0.125
[09:50:00.500]	 -0.305	  0.165
[09:50:00.508]	 -0.285	  0.185
[09:50:00.516]	 -0.245	  0.235
[09:50:00.523]	 -0.205	  0.265
[09:50:00.531]	 -0.175	  0.305
[09:50:00.539]	 -0.185	  0.335
[09:50:00.547]	 -0.125	  0.405
[09:50:00.555]	 -0.115	  0.465
[09:50:00.563]	 -0.075	  0.525
[09:50:00.570]	 -0.025	  0.625
[09:50:00.578]	  0.045	  0.725
[09:50:00.586]	  0.135	  0.805
[09:50:00.594]	  0.185	  0.885
[09:50:00.602]	  0.275	  0.975
[09:50:00.609]	  0.365	  1.035
[09:50:00.617]	  0.435	  1.065
[09:50:00.625]	  0.495	  1.045
[09:50:00.633]	  0.545	  0.975
[09:50:00.641]	  0.555	  0.885
[09:50:00.648]	  0.565	  0.715
[09:50:00.656]	  0.445	  0.515
[09:50:00.664]	  0.295	  0.325
[09:50:00.672]	  0.145	  0.165
[09:50:00.680]	 -0.025	  0.015
[09:50:00.688]	 -0.145	 -0.085
[09:50:00.695]	 -0.245	 -0.145
[09:50:00.703]	 -0.285	 -0.155
[09:50:00.711]	 -0.305	 -0.195
[09:50:00.719]	 -0.345	 -0.225
[09:50:00.727]	 -0.365	 -0.215
[09:50:00.734]	 -0.365	 -0.235
[09:50:00.742]	 -0.385	 -0.225
[09:50:00.750]	 -0.385	 -0.235
[09:50:00.758]	 -0.375	 -0.225
[09:50:00.766]	 -0.365	 -0.195
[09:50:00.773]	 -0.365	 -0.205
[09:50:00.781]	 -0.365	 -0.215
[09:50:00.789]	 -0.365	 -0.205
[09:50:00.797]	 -0.355	 -0.185
[09:50:00.805]	 -0.375	 -0.185
[09:50:00.813]	 -0.355	 -0.195
[09:50:00.820]	 -0.365	 -0.205
[09:50:00.828]	 -0.355	 -0.175
[09:50:00.836]	 -0.335	 -0.195
[09:50:00.844]	 -0.335	 -0.215
[09:50:00.852]	 -0.345	 -0.225
[09:50:00.859]	 -0.355	 -0.215
[09:50:00.867]	 -0.365	 -0.215
[09:50:00.875]	 -0.365	 -0.225
[09:50:00.883]	 -0.355	 -0.245
[09:50:00.891]	 -0.385	 -0.245
[09:50:00.898]	 -0.375	 -0.255
[09:50:00.906]	 -0.385	 -0.275
[09:50:00.914]	 -0.385	 -0.265
[09:50:00.922]	 -0.385	 -0.275
[09:50:00.930]	 -0.395	 -0.265
[09:50:00.938]	 -0.395	 -0.275
[09:50:00.945]	 -0.385	 -0.285
[09:50:00.953]	 -0.395	 -0.265
[09:50:00.961]	 -0.385	 -0.275
[09:50:00.969]	 -0.385	 -0.285
[09:50:00.977]	 -0.395	 -0.295
[09:50:00.984]	 -0.365	 -0.275
[09:50:00.992]	 -0.395	 -0.285
[09:50:01.000]	 -0.375	 -0.265
[09:50:01.008]	 -0.385	 -0.285
[09:50:01.016]	 -0.365	 -0.265
[09:50:01.023]	 -0.345	 -0.275
[09:50:01.031]	 -0.365	 -0.275
[09:50:01.039]	 -0.365	 -0.265
[09:50:01.047]	 -0.355	 -0.265
[09:50:01.055]	 -0.375	 -0.245
[09:50:01.063]	 -0.335	 -0.225
[09:50:01.070]	 -0.305	 -0.185
[09:50:01.078]	 -0.295	 -0.165
[09:50:01.086]	 -0.225	 -0.125
[09:50:01.094]	 -0.175	 -0.105
[09:50:01.102]	 -0.175	 -0.135
[09:50:01.109]	 -0.195	 -0.195
[09:50:01.117]	 -0.245	 -0.235
[09:50:01.125]	 -0.275	 -0.285
[09:50:01.133]	 -0.315	 -0.295
[09:50:01.141]	 -0.345	 -0.285
[09:50:01.148]	 -0.345	 -0.295
[09:50:01.156]	 -0.345	 -0.285
[09:50:01.164]	 -0.325	 -0.285
[09:50:01.172]	 -0.325	 -0.295
[09:50:01.180]	 -0.335	 -0.275
[09:50:01.188]	 -0.295	 -0.265
[09:50:01.195]	 -0.505	 -0.355
[09:50:01.203]	 -0.695	  0.045
[09:50:01.211]	 -0.475	  0.305
[09:50:01.219]	  0.315	 -0.125
[09:50:01.227]	  1.475	 -0.165
[09:50:01.234]	  2.585	  0.405
[09:50:01.242]	  3.015	 -0.135
[09:50:01.250]	  1.345	 -1.265
[09:50:01.258]	 -0.595	 -1.065
[09:50:01.266]	 -1.015	 -0.675
[09:50:01.273]	 -0.815	 -0.425
[09:50:01.281]	 -0.635	 -0.145
[09:50:01.289]	 -0.345	  0.075
[09:50:01.297]	 -0.275	  0.085
[09:50:01.305]	 -0.275	  0.105
[09:50:01.313]	 -0.245	  0.115
[09:50:01.320]	 -0.225	  0.145
[09:50:01.328]	 -0.205	  0.185
[09:50:01.336]	 -0.175	  0.215
[09:50:01.344]	 -0.145	  0.235
[09:50:01.352]	 -0.115	  0.265
[09:50:01.359]	 -0.085	  0.295
[09:50:01.367]	 -0.085	  0.355
[09:50:01.375]	 -0.045	  0.395
[09:50:01.383]	  0.005	  0.455
[09:50:01.391]	  0.045	  0.545
[09:50:01.398]	  0.125	  0.605
[09:50:01.406]	  0.145	  0.685
[09:50:01.414]	  0.205	  0.775
[09:50:01.422]	  0.305	  0.875
[09:50:01.430]	  0.375	  0.955
[09:50:01.438]	  0.455	  0.995
[09:50:01.445]	  0.565	  1.045
[09:50:01.453]	  0.615	  1.035
[09:50:01.461]	  0.675	  0.965
[09:50:01.469]	  0.665	  0.855
[09:50:01.477]	  0.645	  0.715
[09:50:01.484]	  0.535	  0.515
[09:50:01.492]	  0.405	  0.375
[09:50:01.500]	  0.255	  0.205
[09:50:01.508]	  0.105	  0.055
[09:50:01.516]	 -0.015	 -0.025
[09:50:01.523]	 -0.105	 -0.105
[09:50:01.531]	 -0.175	 -0.155
[09:50:01.539]	 -0.225	 -0.175
[09:50:01.547]	 -0.225	 -0.195
[09:50:01.555]	 -0.265	 -0.195
[09:50:01.563]	 -0.245	 -0.205
[09:50:01.570]	 -0.255	 -0.205
[09:50:01.578]	 -0.235	 -0.185
[09:50:01.586]	 -0.235	 -0.185
[09:50:01.594]	 -0.225	 -0.195
[09:50:01.602]	 -0.225	 -0.185
[09:50:01.609]	 -0.215	 -0.185
[09:50:01.617]	 -0.225	 -0.175
[09:50:01.625]	 -0.215	 -0.185
[09:50:01.633]	 -0.215	 -0.185
[09:50:01.641]	 -0.185	 -0.165
[09:50:01.648]	 -0.185	 -0.175
[09:50:01.656]	 -0.205	 -0.195
[09:50:01.664]	 -0.195	 -0.185
[09:50:01.672]	 -0.185	 -0.185
[09:50:01.680]	 -0.205	 -0.185
[09:50:01.688]	 -0.215	 -0.205
[09:50:01.695]	 -0.205	 -0.215
[09:50:01.703]	 -0.205	 -0.205
[09:50:01.711]	 -0.195	 -0.225
[09:50:01.719]	 -0.215	 -0.245
[09:50:01.727]	 -0.205	 -0.235
[09:50:01.734]	 -0.205	 -0.245
[09:50:01.742]	 -0.225	 -0.235
[09:50:01.750]	 -0.205	 -0.235
[09:50:01.758]	 -0.205	 -0.235
[09:50:01.766]	 -0.205	 -0.235
[09:50:01.773]	 -0.195	 -0.235
[09:50:01.781]	 -0.195	 -0.245
[09:50:01.789]	 -0.195	 -0.235
[09:50:01.797]	 -0.165	 -0.235
[09:50:01.805]	 -0.195	 -0.235
[09:50:01.813]	 -0.185	 -0.245
[09:50:01.820]	 -0.175	 -0.225
[09:50:01.828]	 -0.175	 -0.235
[09:50:01.836]	 -0.155	 -0.235
[09:50:01.844]	 -0.155	 -0.215
[09:50:01.852]	 -0.135	 -0.225
[09:50:01.859]	 -0.135	 -0.215
[09:50:01.867]	 -0.135	 -0.215
[09:50:01.875]	 -0.125	 -0.215
[09:50:01.883]	 -0.125	 -0.225
[09:50:01.891]	 -0.115	 -0.185
[09:50:01.898]	 -0.085	 -0.175
[09:50:01.906]	 -0.055	 -0.145
[09:50:01.914]	 -0.035	 -0.145
[09:50:01.922]	  0.015	 -0.085
[09:50:01.930]	  0.075	 -0.075
[09:50:01.938]	  0.105	 -0.095
[09:50:01.945]	  0.075	 -0.165
[09:50:01.953]	  0.025	 -0.205
[09:50:01.961]	  0.025	 -0.245
[09:50:01.969]	 -0.025	 -0.265
[09:50:01.977]	 -0.045	 -0.265
[09:50:01.984]	 -0.025	 -0.265
[09:50:01.992]	 -0.045	 -0.265
[09:50:02.000]	 -0.035	 -0.275
[09:50:02.008]	 -0.025	 -0.265
[09:50:02.016]	 -0.015	 -0.245
[09:50:02.023]	  0.055	 -0.265
[09:50:02.031]	 -0.205	 -0.335
[09:50:02.039]	 -0.365	  0.055
[09:50:02.047]	 -0.115	  0.315
[09:50:02.055]	  0.675	 -0.055
[09:50:02.063]	  1.835	 -0.125
[09:50:02.070]	  2.805	  0.385
[09:50:02.078]	  3.085	 -0.485
[09:50:02.086]	  0.845	 -1.295
[09:50:02.094]	 -0.455	 -0.925
[09:50:02.102]	 -0.585	 -0.615
[09:50:02.109]	 -0.425	 -0.385
[09:50:02.117]	 -0.245	 -0.085
[09:50:02.125]	  0.035	  0.065
[09:50:02.133]	  0.095	  0.065
[09:50:02.141]	  0.105	  0.125
[09:50:02.148]	  0.145	  0.135
[09:50:02.156]	  0.145	  0.155
[09:50:02.164]	  0.195	  0.185
[09:50:02.172]	  0.225	  0.205
[09:50:02.180]	  0.255	  0.245
[09:50:02.188]	  0.275	  0.265
[09:50:02.195]	  0.305	  0.315
[09:50:02.203]	  0.315	  0.375
[09:50:02.211]	  0.375	  0.405
[09:50:02.219]	  0.395	  0.475
[09:50:02.227]	  0.435	  0.535
[09:50:02.234]	  0.485	  0.635
[09:50:02.242]	  0.545	  0.715
[09:50:02.250]	  0.615	  0.805
[09:50:02.258]	  0.685	  0.885
[09:50:02.266]	  0.785	  0.965
[09:50:02.273]	  0.845	  1.005
[09:50:02.281]	  0.885	  1.005
[09:50:02.289]	  0.945	  0.985
[09:50:02.297]	  0.975	  0.905
[09:50:02.305]	  0.935	  0.775
[09:50:02.313]	  0.925	  0.625
[09:50:02.320]	  0.805	  0.435
[09:50:02.328]	  0.675	  0.275
[09:50:02.336]	  0.505	  0.085
[09:50:02.344]	  0.335	 -0.045
[09:50:02.352]	  0.205	 -0.125
[09:50:02.359]	  0.135	 -0.175
[09:50:02.367]	  0.105	 -0.185
[09:50:02.375]	  0.075	 -0.235
[09:50:02.383]	  0.065	 -0.235
[09:50:02.391]	  0.075	 -0.215
[09:50:02.398]	  0.075	 -0.215
[09:50:02.406]	  0.045	 -0.245
[09:50:02.414]	  0.065	 -0.235
[09:50:02.422]	  0.045	 -0.215
[09:50:02.430]	  0.055	 -0.225
[09:50:02.438]	  0.055	 -0.225
[09:50:02.445]	  0.085	 -0.205
[09:50:02.453]	  0.075	 -0.215
[09:50:02.461]	  0.085	 -0.205
[09:50:02.469]	  0.085	 -0.205
[09:50:02.477]	  0.105	 -0.195
[09:50:02.484]	  0.095	 -0.195
[09:50:02.492]	  0.085	 -0.205
[09:50:02.500]	  0.085	 -0.235
[09:50:02.508]	  0.075	 -0.225
[09:50:02.516]	  0.125	 -0.195
[09:50:02.523]	  0.095	 -0.245
[09:50:02.531]	  0.075	 -0.245
[09:50:02.539]	  0.065	 -0.255
[09:50:02.547]	  0.055	 -0.255
[09:50:02.555]	  0.045	 -0.255
[09:50:02.563]	  0.045	 -0.275
[09:50:02.570]	  0.025	 -0.265
[09:50:02.578]	  0.055	 -0.255
[09:50:02.586]	  0.035	 -0.275
[09:50:02.594]	  0.025	 -0.275
[09:50:02.602]	  0.015	 -0.275
[09:50:02.609]	 -0.005	 -0.285
[09:50:02.617]	  0.005	 -0.255
[09:50:02.625]	  0.005	 -0.295
[09:50:02.633]	 -0.005	 -0.275
[09:50:02.641]	 -0.025	 -0.265
[09:50:02.648]	  0.005	 -0.275
[09:50:02.656]	 -0.015	 -0.275
[09:50:02.664]	 -0.015	 -0.265
[09:50:02.672]	 -0.025	 -0.275
[09:50:02.680]	 -0.035	 -0.225
[09:50:02.688]	 -0.015	 -0.195
[09:50:02.695]	  0.035	 -0.175
[09:50:02.703]	  0.005	 -0.155
[09:50:02.711]	  0.095	 -0.105
[09:50:02.719]	  0.145	 -0.125
[09:50:02.727]	  0.115	 -0.145
[09:50:02.734]	  0.095	 -0.195
[09:50:02.742]	  0.025	 -0.235
[09:50:02.750]	 -0.015	 -0.275
[09:50:02.758]	 -0.055	 -0.315
[09:50:02.766]	 -0.085	 -0.285
[09:50:02.773]	 -0.085	 -0.295
[09:50:02.781]	 -0.075	 -0.285
[09:50:02.789]	 -0.075	 -0.275
[09:50:02.797]	 -0.085	 -0.285
[09:50:02.805]	 -0.095	 -0.265
[09:50:02.813]	 -0.035	 -0.255
[09:50:02.820]	 -0.295	 -0.335
[09:50:02.828]	 -0.485	  0.055
[09:50:02.836]	 -0.225	  0.405
[09:50:02.844]	  0.705	  0.025
[09:50:02.852]	  1.985	 -0.195
[09:50:02.859]	  2.915	  0.245
[09:50:02.867]	  2.915	 -0.645
[09:50:02.875]	  0.435	 -1.285
[09:50:02.883]	 -0.715	 -0.915
[09:50:02.891]	 -0.765	 -0.605
[09:50:02.898]	 -0.565	 -0.345
[09:50:02.906]	 -0.325	 -0.015
[09:50:02.914]	 -0.115	  0.075
[09:50:02.922]	 -0.095	  0.085
[09:50:02.930]	 -0.095	  0.115
[09:50:02.938]	 -0.075	  0.145
[09:50:02.945]	 -0.045	  0.165
[09:50:02.953]	 -0.015	  0.205
[09:50:02.961]	  0.005	  0.235
[09:50:02.969]	  0.005	  0.255
[09:50:02.977]	  0.045	  0.305
[09:50:02.984]	  0.065	  0.345
[09:50:02.992]	  0.085	  0.425
[09:50:03.000]	  0.125	  0.445
[09:50:03.008]	  0.155	  0.525
[09:50:03.016]	  0.205	  0.615
[09:50:03.023]	  0.285	  0.715
[09:50:03.031]	  0.325	  0.785
[09:50:03.039]	  0.385	  0.885
[09:50:03.047]	  0.475	  0.975
[09:50:03.055]	  0.545	  1.035
[09:50:03.063]	  0.645	  1.055
[09:50:03.070]	  0.695	  1.045
[09:50:03.078]	  0.765	  1.005
[09:50:03.086]	  0.745	  0.875
[09:50:03.094]	  0.715	  0.715
[09:50:03.102]	  0.615	  0.515
[09:50:03.109]	  0.455	  0.335
[09:50:03.117]	  0.275	  0.165
[09:50:03.125]	  0.125	  0.025
[09:50:03.133]	  0.015	 -0.065
[09:50:03.141]	 -0.035	 -0.115
[09:50:03.148]	 -0.115	 -0.155
[09:50:03.156]	 -0.145	 -0.185
[09:50:03.164]	 -0.175	 -0.205
[09:50:03.172]	 -0.215	 -0.215
[09:50:03.180]	 -0.195	 -0.215
[09:50:03.188]	 -0.225	 -0.225
[09:50:03.195]	 -0.195	 -0.195
[09:50:03.203]	 -0.195	 -0.195
[09:50:03.211]	 -0.195	 -0.195
[09:50:03.219]	 -0.205	 -0.195
[09:50:03.227]	 -0.185	 -0.185
[09:50:03.234]	 -0.205	 -0.185
[09:50:03.242]	 -0.205	 -0.175
[09:50:03.250]	 -0.195	 -0.185
[09:50:03.258]	 -0.195	 -0.185
[09:50:03.266]	 -0.165	 -0.165
[09:50:03.273]	 -0.185	 -0.175
[09:50:03.281]	 -0.175	 -0.185
[09:50:03.289]	 -0.185	 -0.195
[09:50:03.297]	 -0.185	 -0.185
[09:50:03.305]	 -0.195	 -0.205
[09:50:03.313]	 -0.185	 -0.205
[09:50:03.320]	 -0.205	 -0.225
[09:50:03.328]	 -0.175	 -0.205
[09:50:03.336]	 -0.195	 -0.225
[09:50:03.344]	 -0.205	 -0.235
[09:50:03.352]	 -0.215	 -0.255
[09:50:03.359]	 -0.235	 -0.245
[09:50:03.367]	 -0.235	 -0.245
[09:50:03.375]	 -0.235	 -0.255
[09:50:03.383]	 -0.255	 -0.265
[09:50:03.391]	 -0.215	 -0.245
[09:50:03.398]	 -0.235	 -0.245
[09:50:03.406]	 -0.235	 -0.255
[09:50:03.414]	 -0.245	 -0.265
[09:50:03.422]	 -0.265	 -0.255
[09:50:03.430]	 -0.245	 -0.255
[09:50:03.438]	 -0.265	 -0.245
[09:50:03.445]	 -0.255	 -0.255
[09:50:03.453]	 -0.235	 -0.245
[09:50:03.461]	 -0.255	 -0.245
[09:50:03.469]	 -0.265	 -0.245
[09:50:03.477]	 -0.245	 -0.235
[09:50:03.484]	 -0.245	 -0.205
[09:50:03.492]	 -0.195	 -0.145
[09:50:03.500]	 -0.195	 -0.145
[09:50:03.508]	 -0.175	 -0.115
[09:50:03.516]	 -0.065	 -0.065
[09:50:03.523]	 -0.065	 -0.115
[09:50:03.531]	 -0.125	 -0.165
[09:50:03.539]	 -0.165	 -0.205
[09:50:03.547]	 -0.215	 -0.255
[09:50:03.555]	 -0.245	 -0.285
[09:50:03.563]	 -0.265	 -0.285
[09:50:03.570]	 -0.285	 -0.285
[09:50:03.578]	 -0.255	 -0.285
[09:50:03.586]	 -0.265	 -0.275
[09:50:03.594]	 -0.265	 -0.285
[09:50:03.602]	 -0.265	 -0.275
[09:50:03.609]	 -0.235	 -0.265
[09:50:03.617]	 -0.355	 -0.335
[09:50:03.625]	 -0.625	 -0.165
[09:50:03.633]	 -0.555	  0.255
[09:50:03.641]	  0.205	  0.135
[09:50:03.648]	  1.385	 -0.265
[09:50:03.656]	  2.485	  0.205
[09:50:03.664]	  2.825	 -0.335
[09:50:03.672]	  0.985	 -1.305
[09:50:03.680]	 -0.585	 -1.105
[09:50:03.688]	 -0.935	 -0.715
[09:50:03.695]	 -0.745	 -0.435
[09:50:03.703]	 -0.575	 -0.155
[09:50:03.711]	 -0.265	  0.085
[09:50:03.719]	 -0.285	  0.075
[09:50:03.727]	 -0.255	  0.085
[09:50:03.734]	 -0.265	  0.125
[09:50:03.742]	 -0.255	  0.165
[09:50:03.750]	 -0.265	  0.165
[09:50:03.758]	 -0.255	  0.205
[09:50:03.766]	 -0.205	  0.235
[09:50:03.773]	 -0.185	  0.265
[09:50:03.781]	 -0.135	  0.295
[09:50:03.789]	 -0.105	  0.345
[09:50:03.797]	 -0.105	  0.385
[09:50:03.805]	 -0.075	  0.455
[09:50:03.813]	 -0.025	  0.515
[09:50:03.820]	  0.005	  0.575
[09:50:03.828]	  0.085	  0.695
[09:50:03.836]	  0.125	  0.795
[09:50:03.844]	  0.185	  0.875
[09:50:03.852]	  0.265	  0.955
[09:50:03.859]	  0.335	  1.015
[09:50:03.867]	  0.395	  1.045
[09:50:03.875]	  0.445	  1.045
[09:50:03.883]	  0.475	  0.995
[09:50:03.891]	  0.525	  0.925
[09:50:03.898]	  0.485	  0.775
[09:50:03.906]	  0.385	  0.575
[09:50:03.914]	  0.255	  0.415
[09:50:03.922]	  0.095	  0.245
[09:50:03.930]	 -0.055	  0.085
[09:50:03.938]	 -0.175	 -0.015
[09:50:03.945]	 -0.255	 -0.085
[09:50:03.953]	 -0.295	 -0.115
[09:50:03.961]	 -0.335	 -0.175
[09:50:03.969]	 -0.385	 -0.215
[09:50:03.977]	 -0.385	 -0.205
[09:50:03.984]	 -0.385	 -0.205
[09:50:03.992]	 -0.375	 -0.195
[09:50:04.000]	 -0.415	 -0.225
[09:50:04.008]	 -0.405	 -0.215
[09:50:04.016]	 -0.385	 -0.205
[09:50:04.023]	 -0.385	 -0.205
[09:50:04.031]	 -0.415	 -0.215
[09:50:04.039]	 -0.385	 -0.205
[09:50:04.047]	 -0.415	 -0.215
[09:50:04.055]	 -0.405	 -0.195
[09:50:04.063]	 -0.425	 -0.205
[09:50:04.070]	 -0.415	 -0.215
[09:50:04.078]	 -0.395	 -0.195
[09:50:04.086]	 -0.415	 -0.205
[09:50:04.094]	 -0.405	 -0.215
[09:50:04.102]	 -0.415	 -0.235
[09:50:04.109]	 -0.425	 -0.225
[09:50:04.117]	 -0.425	 -0.235
[09:50:04.125]	 -0.425	 -0.245
[09:50:04.133]	 -0.425	 -0.255
[09:50:04.141]	 -0.405	 -0.255
[09:50:04.148]	 -0.415	 -0.255
[09:50:04.156]	 -0.435	 -0.275
[09:50:04.164]	 -0.435	 -0.285
[09:50:04.172]	 -0.435	 -0.255
[09:50:04.180]	 -0.435	 -0.255
[09:50:04.188]	 -0.435	 -0.275
[09:50:04.195]	 -0.425	 -0.275
[09:50:04.203]	 -0.425	 -0.265
[09:50:04.211]	 -0.425	 -0.265
[09:50:04.219]	 -0.455	 -0.275
[09:50:04.227]	 -0.435	 -0.255
[09:50:04.234]	 -0.465	 -0.265
[09:50:04.242]	 -0.455	 -0.265
[09:50:04.250]	 -0.465	 -0.265
[09:50:04.258]	 -0.465	 -0.265
[09:50:04.266]	 -0.445	 -0.265
[09:50:04.273]	 -0.445	 -0.265
[09:50:04.281]	 -0.445	 -0.265
[09:50:04.289]	 -0.435	 -0.245
[09:50:04.297]	 -0.445	 -0.255
[09:50:04.305]	 -0.445	 -0.225
[09:50:04.313]	 -0.425	 -0.205
[09:50:04.320]	 -0.385	 -0.175
[09:50:04.328]	 -0.345	 -0.135
[09:50:04.336]	 -0.305	 -0.085
[09:50:04.344]	 -0.265	 -0.105
[09:50:04.352]	 -0.265	 -0.115
[09:50:04.359]	 -0.335	 -0.195
[09:50:04.367]	 -0.355	 -0.255
[09:50:04.375]	 -0.395	 -0.285
[09:50:04.383]	 -0.425	 -0.285
[09:50:04.391]	 -0.415	 -0.285
[09:50:04.398]	 -0.445	 -0.295
[09:50:04.406]	 -0.415	 -0.285
[09:50:04.414]	 -0.405	 -0.285
[09:50:04.422]	 -0.415	 -0.275
[09:50:04.430]	 -0.395	 -0.275
[09:50:04.438]	 -0.395	 -0.295
[09:50:04.445]	 -0.735	 -0.385
[09:50:04.453]	 -0.755	  0.065
[09:50:04.461]	 -0.215	  0.235
[09:50:04.469]	  0.785	 -0.245
[09:50:04.477]	  2.125	 -0.005
[09:50:04.484]	  2.845	  0.425
[09:50:04.492]	  2.075	 -0.635
[09:50:04.500]	 -0.305	 -1.295
[09:50:04.508]	 -1.105	 -0.895
[09:50:04.516]	 -0.905	 -0.475
[09:50:04.523]	 -0.665	 -0.215
[09:50:04.531]	 -0.375	  0.045
[09:50:04.539]	 -0.335	  0.045
[09:50:04.547]	 -0.335	  0.055
[09:50:04.555]	 -0.325	  0.085
[09:50:04.563]	 -0.285	  0.095
[09:50:04.570]	 -0.255	  0.135
[09:50:04.578]	 -0.205	  0.175
[09:50:04.586]	 -0.235	  0.195
[09:50:04.594]	 -0.205	  0.215
[09:50:04.602]	 -0.175	  0.255
[09:50:04.609]	 -0.145	  0.295
[09:50:04.617]	 -0.115	  0.335
[09:50:04.625]	 -0.075	  0.395
[09:50:04.633]	 -0.035	  0.465
[09:50:04.641]	  0.055	  0.555
[09:50:04.648]	  0.085	  0.625
[09:50:04.656]	  0.145	  0.705
[09:50:04.664]	  0.225	  0.795
[09:50:04.672]	  0.305	  0.885
[09:50:04.680]	  0.375	  0.935
[09:50:04.688]	  0.455	  0.965
[09:50:04.695]	  0.505	  0.965
[09:50:04.703]	  0.555	  0.945
[09:50:04.711]	  0.565	  0.855
[09:50:04.719]	  0.525	  0.745
[09:50:04.727]	  0.465	  0.575
[09:50:04.734]	  0.315	  0.405
[09:50:04.742]	  0.175	  0.225
[09:50:04.750]	  0.025	  0.085
[09:50:04.758]	 -0.095	 -0.025
[09:50:04.766]	 -0.155	 -0.105
[09:50:04.773]	 -0.235	 -0.165
[09:50:04.781]	 -0.275	 -0.195
[09:50:04.789]	 -0.275	 -0.215
[09:50:04.797]	 -0.325	 -0.225
[09:50:04.805]	 -0.315	 -0.225
[09:50:04.813]	 -0.325	 -0.235
[09:50:04.820]	 -0.335	 -0.245
[09:50:04.828]	 -0.305	 -0.225
[09:50:04.836]	 -0.305	 -0.225
[09:50:04.844]	 -0.305	 -0.235
[09:50:04.852]	 -0.305	 -0.215
[09:50:04.859]	 -0.305	 -0.215
[09:50:04.867]	 -0.315	 -0.225
[09:50:04.875]	 -0.305	 -0.215
[09:50:04.883]	 -0.285	 -0.225
[09:50:04.891]	 -0.255	 -0.205
[09:50:04.898]	 -0.285	 -0.215
[09:50:04.906]	 -0.295	 -0.225
[09:50:04.914]	 -0.285	 -0.235
[09:50:04.922]	 -0.295	 -0.235
[09:50:04.930]	 -0.295	 -0.245
[09:50:04.938]	 -0.315	 -0.255
[09:50:04.945]	 -0.295	 -0.265
[09:50:04.953]	 -0.275	 -0.255
[09:50:04.961]	 -0.315	 -0.275
[09:50:04.969]	 -0.335	 -0.285
[09:50:04.977]	 -0.315	 -0.285
[09:50:04.984]	 -0.325	 -0.285
[09:50:04.992]	 -0.325	 -0.285
[09:50:05.000]	 -0.345	 -0.305
[09:50:05.008]	 -0.335	 -0.295
[09:50:05.016]	 -0.305	 -0.285
[09:50:05.023]	 -0.315	 -0.285
[09:50:05.031]	 -0.315	 -0.315
[09:50:05.039]	 -0.325	 -0.315
[09:50:05.047]	 -0.335	 -0.305
[09:50:05.055]	 -0.335	 -0.285
[09:50:05.063]	 -0.335	 -0.305
[09:50:05.070]	 -0.325	 -0.305
[09:50:05.078]	 -0.285	 -0.285
[09:50:05.086]	 -0.315	 -0.295
[09:50:05.094]	 -0.315	 -0.295
[09:50:05.102]	 -0.295	 -0.295
[09:50:05.109]	 -0.295	 -0.295
[09:50:05.117]	 -0.305	 -0.275
[09:50:05.125]	 -0.305	 -0.295
[09:50:05.133]	 -0.285	 -0.255
[09:50:05.141]	 -0.215	 -0.195
[09:50:05.148]	 -0.225	 -0.205
[09:50:05.156]	 -0.205	 -0.175
[09:50:05.164]	 -0.145	 -0.125
[09:50:05.172]	 -0.115	 -0.125
[09:50:05.180]	 -0.155	 -0.205
[09:50:05.188]	 -0.205	 -0.245
[09:50:05.195]	 -0.245	 -0.315
[09:50:05.203]	 -0.255	 -0.305
[09:50:05.211]	 -0.295	 -0.325
[09:50:05.219]	 -0.305	 -0.325
[09:50:05.227]	 -0.285	 -0.325
[09:50:05.234]	 -0.305	 -0.305
[09:50:05.242]	 -0.265	 -0.305
[09:50:05.250]	 -0.295	 -0.325
[09:50:05.258]	 -0.245	 -0.305
[09:50:05.266]	 -0.485	 -0.435
[09:50:05.273]	 -0.655	 -0.165
[09:50:05.281]	 -0.425	  0.145
[09:50:05.289]	  0.445	 -0.075
[09:50:05.297]	  1.645	 -0.185
[09:50:05.305]	  2.635	  0.405
[09:50:05.313]	  2.495	 -0.405
[09:50:05.320]	  0.125	 -1.395
[09:50:05.328]	 -0.875	 -1.055
[09:50:05.336]	 -0.875	 -0.645
[09:50:05.344]	 -0.645	 -0.355
[09:50:05.352]	 -0.355	 -0.045
[09:50:05.359]	 -0.245	  0.025
[09:50:05.367]	 -0.245	  0.025
[09:50:05.375]	 -0.205	  0.045
[09:50:05.383]	 -0.205	  0.055
[09:50:05.391]	 -0.145	  0.115
[09:50:05.398]	 -0.135	  0.125
[09:50:05.406]	 -0.095	  0.145
[09:50:05.414]	 -0.075	  0.185
[09:50:05.422]	 -0.065	  0.225
[09:50:05.430]	 -0.035	  0.265
[09:50:05.438]	 -0.005	  0.295
[09:50:05.445]	  0.025	  0.345
[09:50:05.453]	  0.075	  0.415
[09:50:05.461]	  0.095	  0.475
[09:50:05.469]	  0.135	  0.545
[09:50:05.477]	  0.185	  0.635
[09:50:05.484]	  0.245	  0.735
[09:50:05.492]	  0.325	  0.815
[09:50:05.500]	  0.415	  0.895
[09:50:05.508]	  0.475	  0.955
[09:50:05.516]	  0.555	  0.965
[09:50:05.523]	  0.595	  0.945
[09:50:05.531]	  0.615	  0.895
[09:50:05.539]	  0.645	  0.805
[09:50:05.547]	  0.605	  0.665
[09:50:05.555]	  0.505	  0.495
[09:50:05.563]	  0.365	  0.295
[09:50:05.570]	  0.205	  0.145
[09:50:05.578]	  0.105	  0.025
[09:50:05.586]	 -0.015	 -0.065
[09:50:05.594]	 -0.085	 -0.135
[09:50:05.602]	 -0.125	 -0.185
[09:50:05.609]	 -0.175	 -0.205
[09:50:05.617]	 -0.195	 -0.225
[09:50:05.625]	 -0.185	 -0.235
[09:50:05.633]	 -0.175	 -0.245
[09:50:05.641]	 -0.145	 -0.215
[09:50:05.648]	 -0.155	 -0.225
[09:50:05.656]	 -0.175	 -0.235
[09:50:05.664]	 -0.155	 -0.225
[09:50:05.672]	 -0.145	 -0.215
[09:50:05.680]	 -0.145	 -0.215
[09:50:05.688]	 -0.125	 -0.215
[09:50:05.695]	 -0.115	 -0.205
[09:50:05.703]	 -0.085	 -0.195
[09:50:05.711]	 -0.085	 -0.215
[09:50:05.719]	 -0.095	 -0.225
[09:50:05.727]	 -0.085	 -0.225
[09:50:05.734]	 -0.115	 -0.215
[09:50:05.742]	 -0.085	 -0.235
[09:50:05.750]	 -0.085	 -0.215
[09:50:05.758]	 -0.085	 -0.255
[09:50:05.766]	 -0.045	 -0.245
[09:50:05.773]	 -0.085	 -0.265
[09:50:05.781]	 -0.105	 -0.285
[09:50:05.789]	 -0.085	 -0.295
[09:50:05.797]	 -0.085	 -0.275
[09:50:05.805]	 -0.085	 -0.295
[09:50:05.813]	 -0.075	 -0.285
[09:50:05.820]	 -0.075	 -0.295
[09:50:05.828]	 -0.055	 -0.275
[09:50:05.836]	 -0.075	 -0.305
[09:50:05.844]	 -0.075	 -0.295
[09:50:05.852]	 -0.085	 -0.295
[09:50:05.859]	 -0.075	 -0.295
[09:50:05.867]	 -0.065	 -0.295
[09:50:05.875]	 -0.065	 -0.305
[09:50:05.883]	 -0.065	 -0.305
[09:50:05.891]	 -0.025	 -0.285
[09:50:05.898]	 -0.035	 -0.285
[09:50:05.906]	 -0.045	 -0.295
[09:50:05.914]	 -0.065	 -0.315
[09:50:05.922]	 -0.035	 -0.285
[09:50:05.930]	 -0.045	 -0.285
[09:50:05.938]	 -0.045	 -0.285
[09:50:05.945]	 -0.015	 -0.285
[09:50:05.953]	 -0.025	 -0.265
[09:50:05.961]	  0.005	 -0.235
[09:50:05.969]	  0.015	 -0.215
[09:50:05.977]	  0.035	 -0.225
[09:50:05.984]	  0.035	 -0.175
[09:50:05.992]	  0.125	 -0.115
[09:50:06.000]	  0.155	 -0.135
[09:50:06.008]	  0.125	 -0.185
[09:50:06.016]	  0.095	 -0.215
[09:50:06.023]	  0.055	 -0.275
[09:50:06.031]	 -0.005	 -0.305
[09:50:06.039]	 -0.015	 -0.315
[09:50:06.047]	 -0.035	 -0.295
[09:50:06.055]	 -0.025	 -0.295
[09:50:06.063]	 -0.035	 -0.295
[09:50:06.070]	 -0.035	 -0.285
[09:50:06.078]	  0.015	 -0.265
[09:50:06.086]	  0.045	 -0.265
[09:50:06.094]	 -0.225	 -0.365
[09:50:06.102]	 -0.395	 -0.045
[09:50:06.109]	 -0.125	  0.295
[09:50:06.117]	  0.815	  0.155
[09:50:06.125]	  2.045	 -0.105
[09:50:06.133]	  2.795	  0.365
[09:50:06.141]	  2.915	 -0.265
[09:50:06.148]	  0.765	 -1.265
[09:50:06.156]	 -0.465	 -1.035
[09:50:06.164]	 -0.625	 -0.755
[09:50:06.172]	 -0.505	 -0.525
[09:50:06.180]	 -0.345	 -0.275
[09:50:06.188]	 -0.055	 -0.015
[09:50:06.195]	  0.035	  0.025
[09:50:06.203]	  0.055	  0.025
[09:50:06.211]	  0.075	  0.065
[09:50:06.219]	  0.095	  0.095
[09:50:06.227]	  0.135	  0.095
[09:50:06.234]	  0.135	  0.145
[09:50:06.242]	  0.165	  0.175
[09:50:06.250]	  0.185	  0.205
[09:50:06.258]	  0.205	  0.225
[09:50:06.266]	  0.255	  0.295
[09:50:06.273]	  0.285	  0.325
[09:50:06.281]	  0.275	  0.355
[09:50:06.289]	  0.335	  0.445
[09:50:06.297]	  0.375	  0.515
[09:50:06.305]	  0.445	  0.605
[09:50:06.313]	  0.515	  0.675
[09:50:06.320]	  0.575	  0.765
[09:50:06.328]	  0.675	  0.825
[09:50:06.336]	  0.735	  0.885
[09:50:06.344]	  0.805	  0.915
[09:50:06.352]	  0.865	  0.905
[09:50:06.359]	  0.865	  0.855
[09:50:06.367]	  0.875	  0.795
[09:50:06.375]	  0.835	  0.645
[09:50:06.383]	  0.785	  0.495
[09:50:06.391]	  0.655	  0.345
[09:50:06.398]	  0.485	  0.175
[09:50:06.406]	  0.355	  0.055
[09:50:06.414]	  0.235	 -0.065
[09:50:06.422]	  0.165	 -0.105
[09:50:06.430]	  0.115	 -0.145
[09:50:06.438]	  0.065	 -0.195
[09:50:06.445]	  0.065	 -0.205
[09:50:06.453]	  0.075	 -0.205
[09:50:06.461]	  0.065	 -0.195
[09:50:06.469]	  0.035	 -0.225
[09:50:06.477]	  0.045	 -0.215
[09:50:06.484]	  0.045	 -0.185
[09:50:06.492]	  0.035	 -0.185
[09:50:06.500]	  0.045	 -0.195
[09:50:06.508]	  0.055	 -0.175
[09:50:06.516]	  0.105	 -0.155
[09:50:06.523]	  0.075	 -0.175
[09:50:06.531]	  0.065	 -0.185
[09:50:06.539]	  0.065	 -0.185
[09:50:06.547]	  0.065	 -0.175
[09:50:06.555]	  0.055	 -0.175
[09:50:06.563]	  0.045	 -0.185
[09:50:06.570]	  0.045	 -0.195
[09:50:06.578]	  0.045	 -0.195
[09:50:06.586]	  0.015	 -0.205
[09:50:06.594]	 -0.015	 -0.215
[09:50:06.602]	 -0.025	 -0.215
[09:50:06.609]	 -0.055	 -0.235
[09:50:06.617]	 -0.085	 -0.225
[09:50:06.625]	 -0.115	 -0.245
[09:50:06.633]	 -0.115	 -0.255
[09:50:06.641]	 -0.105	 -0.245
[09:50:06.648]	 -0.115	 -0.245
[09:50:06.656]	 -0.135	 -0.255
[09:50:06.664]	 -0.125	 -0.275
[09:50:06.672]	 -0.145	 -0.265
[09:50:06.680]	 -0.135	 -0.255
[09:50:06.688]	 -0.155	 -0.275
[09:50:06.695]	 -0.155	 -0.265
[09:50:06.703]	 -0.135	 -0.255
[09:50:06.711]	 -0.135	 -0.255
[09:50:06.719]	 -0.165	 -0.275
[09:50:06.727]	 -0.155	 -0.265
[09:50:06.734]	 -0.165	 -0.265
[09:50:06.742]	 -0.175	 -0.255
[09:50:06.750]	 -0.165	 -0.225
[09:50:06.758]	 -0.115	 -0.175
[09:50:06.766]	 -0.105	 -0.175
[09:50:06.773]	 -0.075	 -0.135
[09:50:06.781]	 -0.015	 -0.125
[09:50:06.789]	 -0.025	 -0.145
[09:50:06.797]	 -0.055	 -0.195
[09:50:06.805]	 -0.125	 -0.245
[09:50:06.813]	 -0.185	 -0.295
[09:50:06.820]	 -0.245	 -0.315
[09:50:06.828]	 -0.245	 -0.295
[09:50:06.836]	 -0.265	 -0.305
[09:50:06.844]	 -0.275	 -0.305
[09:50:06.852]	 -0.255	 -0.275
[09:50:06.859]	 -0.245	 -0.265
[09:50:06.867]	 -0.245	 -0.275
[09:50:06.875]	 -0.225	 -0.275
[09:50:06.883]	 -0.475	 -0.375
[09:50:06.891]	 -0.665	 -0.055
[09:50:06.898]	 -0.475	  0.325
[09:50:06.906]	  0.495	 -0.035
[09:50:06.914]	  1.795	 -0.075
[09:50:06.922]	  2.725	  0.485
[09:50:06.930]	  2.845	 -0.285
[09:50:06.938]	  0.385	 -1.335
[09:50:06.945]	 -0.895	 -0.965
[09:50:06.953]	 -0.965	 -0.635
[09:50:06.961]	 -0.785	 -0.405
[09:50:06.969]	 -0.605	 -0.145
[09:50:06.977]	 -0.335	  0.075
[09:50:06.984]	 -0.305	  0.055
[09:50:06.992]	 -0.305	  0.085
[09:50:07.000]	 -0.275	  0.105
[09:50:07.008]	 -0.265	  0.135
[09:50:07.016]	 -0.215	  0.185
[09:50:07.023]	 -0.205	  0.205
[09:50:07.031]	 -0.185	  0.215
[09:50:07.039]	 -0.155	  0.265
[09:50:07.047]	 -0.145	  0.305
[09:50:07.055]	 -0.125	  0.345
[09:50:07.063]	 -0.075	  0.405
[09:50:07.070]	 -0.045	  0.445
[09:50:07.078]	  0.025	  0.535
[09:50:07.086]	  0.065	  0.625
[09:50:07.094]	  0.115	  0.705
[09:50:07.102]	  0.195	  0.795
[09:50:07.109]	  0.255	  0.895
[09:50:07.117]	  0.345	  0.945
[09:50:07.125]	  0.425	  0.995
[09:50:07.133]	  0.495	  1.005
[09:50:07.141]	  0.565	  0.995
[09:50:07.148]	  0.575	  0.905
[09:50:07.156]	  0.555	  0.805
[09:50:07.164]	  0.535	  0.675
[09:50:07.172]	  0.435	  0.505
[09:50:07.180]	  0.295	  0.345
[09:50:07.188]	  0.115	  0.165
[09:50:07.195]	 -0.005	  0.035
[09:50:07.203]	 -0.095	 -0.035
[09:50:07.211]	 -0.195	 -0.125
[09:50:07.219]	 -0.275	 -0.165
[09:50:07.227]	 -0.305	 -0.195
[09:50:07.234]	 -0.325	 -0.215
[09:50:07.242]	 -0.345	 -0.225
[09:50:07.250]	 -0.325	 -0.225
[09:50:07.258]	 -0.355	 -0.245
[09:50:07.266]	 -0.335	 -0.225
[09:50:07.273]	 -0.345	 -0.225
[09:50:07.281]	 -0.325	 -0.215
[09:50:07.289]	 -0.325	 -0.215
[09:50:07.297]	 -0.315	 -0.205
[09:50:07.305]	 -0.345	 -0.205
[09:50:07.313]	 -0.335	 -0.205
[09:50:07.320]	 -0.325	 -0.195
[09:50:07.328]	 -0.305	 -0.185
[09:50:07.336]	 -0.295	 -0.185
[09:50:07.344]	 -0.315	 -0.205
[09:50:07.352]	 -0.305	 -0.195
[09:50:07.359]	 -0.285	 -0.195
[09:50:07.367]	 -0.305	 -0.205
[09:50:07.375]	 -0.295	 -0.215
[09:50:07.383]	 -0.305	 -0.225
[09:50:07.391]	 -0.285	 -0.205
[09:50:07.398]	 -0.315	 -0.255
[09:50:07.406]	 -0.345	 -0.255
[09:50:07.414]	 -0.325	 -0.255
[09:50:07.422]	 -0.325	 -0.255
[09:50:07.430]	 -0.355	 -0.265
[09:50:07.438]	 -0.345	 -0.265
[09:50:07.445]	 -0.355	 -0.295
[09:50:07.453]	 -0.335	 -0.255
[09:50:07.461]	 -0.325	 -0.275
[09:50:07.469]	 -0.365	 -0.285
[09:50:07.477]	 -0.345	 -0.275
[09:50:07.484]	 -0.345	 -0.275
[09:50:07.492]	 -0.365	 -0.255
[09:50:07.500]	 -0.355	 -0.275
[09:50:07.508]	 -0.365	 -0.285
[09:50:07.516]	 -0.335	 -0.245
[09:50:07.523]	 -0.345	 -0.255
[09:50:07.531]	 -0.345	 -0.205
[09:50:07.539]	 -0.285	 -0.155
[09:50:07.547]	 -0.295	 -0.165
[09:50:07.555]	 -0.245	 -0.125
[09:50:07.563]	 -0.185	 -0.145
[09:50:07.570]	 -0.195	 -0.145
[09:50:07.578]	 -0.215	 -0.175
[09:50:07.586]	 -0.275	 -0.245
[09:50:07.594]	 -0.305	 -0.295
[09:50:07.602]	 -0.355	 -0.305
[09:50:07.609]	 -0.395	 -0.295
[09:50:07.617]	 -0.395	 -0.305
[09:50:07.625]	 -0.395	 -0.295
[09:50:07.633]	 -0.395	 -0.305
[09:50:07.641]	 -0.345	 -0.275
[09:50:07.648]	 -0.375	 -0.295
[09:50:07.656]	 -0.345	 -0.265
[09:50:07.664]	 -0.535	 -0.375
[09:50:07.672]	 -0.795	 -0.165
[09:50:07.680]	 -0.675	  0.175
[09:50:07.688]	  0.105	 -0.005
[09:50:07.695]	  1.245	 -0.205
[09:50:07.703]	  2.435	  0.345
[09:50:07.711]	  2.935	  0.185
[09:50:07.719]	  1.355	 -1.165
[09:50:07.727]	 -0.625	 -1.105
[09:50:07.734]	 -1.105	 -0.695
[09:50:07.742]	 -0.905	 -0.425
[09:50:07.750]	 -0.735	 -0.225
[09:50:07.758]	 -0.425	  0.055
[09:50:07.766]	 -0.305	  0.095
[09:50:07.773]	 -0.325	  0.075
[09:50:07.781]	 -0.315	  0.095
[09:50:07.789]	 -0.285	  0.135
[09:50:07.797]	 -0.265	  0.165
[09:50:07.805]	 -0.235	  0.195
[09:50:07.813]	 -0.225	  0.205
[09:50:07.820]	 -0.195	  0.255
[09:50:07.828]	 -0.145	  0.295
[09:50:07.836]	 -0.125	  0.335
[09:50:07.844]	 -0.105	  0.395
[09:50:07.852]	 -0.075	  0.445
[09:50:07.859]	 -0.025	  0.525
[09:50:07.867]	  0.025	  0.605
[09:50:07.875]	  0.065	  0.675
[09:50:07.883]	  0.135	  0.765
[09:50:07.891]	  0.225	  0.865
[09:50:07.898]	  0.315	  0.945
[09:50:07.906]	  0.385	  0.995
[09:50:07.914]	  0.465	  1.025
[09:50:07.922]	  0.515	  1.025
[09:50:07.930]	  0.555	  0.965
[09:50:07.938]	  0.555	  0.875
[09:50:07.945]	  0.535	  0.745
[09:50:07.953]	  0.485	  0.605
[09:50:07.961]	  0.365	  0.395
[09:50:07.969]	  0.185	  0.195
[09:50:07.977]	  0.015	  0.035
[09:50:07.984]	 -0.115	 -0.065
[09:50:07.992]	 -0.205	 -0.125
[09:50:08.000]	 -0.245	 -0.185
[09:50:08.008]	 -0.295	 -0.215
[09:50:08.016]	 -0.305	 -0.195
[09:50:08.023]	 -0.305	 -0.225
[09:50:08.031]	 -0.335	 -0.255
[09:50:08.039]	 -0.325	 -0.245
[09:50:08.047]	 -0.325	 -0.255
[09:50:08.055]	 -0.345	 -0.235
[09:50:08.063]	 -0.345	 -0.245
[09:50:08.070]	 -0.345	 -0.245
[09:50:08.078]	 -0.325	 -0.215
[09:50:08.086]	 -0.305	 -0.235
[09:50:08.094]	 -0.335	 -0.235
[09:50:08.102]	 -0.315	 -0.215
[09:50:08.109]	 -0.295	 -0.225
[09:50:08.117]	 -0.325	 -0.205
[09:50:08.125]	 -0.305	 -0.215
[09:50:08.133]	 -0.315	 -0.225
[09:50:08.141]	 -0.305	 -0.215
[09:50:08.148]	 -0.285	 -0.225
[09:50:08.156]	 -0.305	 -0.235
[09:50:08.164]	 -0.305	 -0.265
[09:50:08.172]	 -0.285	 -0.245
[09:50:08.180]	 -0.325	 -0.275
[09:50:08.188]	 -0.315	 -0.275
[09:50:08.195]	 -0.335	 -0.285
[09:50:08.203]	 -0.315	 -0.255
[09:50:08.211]	 -0.305	 -0.285
[09:50:08.219]	 -0.325	 -0.305
[09:50:08.227]	 -0.345	 -0.305
[09:50:08.234]	 -0.305	 -0.295
[09:50:08.242]	 -0.335	 -0.305
[09:50:08.250]	 -0.345	 -0.315
[09:50:08.258]	 -0.325	 -0.315
[09:50:08.266]	 -0.315	 -0.305
[09:50:08.273]	 -0.315	 -0.305
[09:50:08.281]	 -0.325	 -0.315
[09:50:08.289]	 -0.315	 -0.305
[09:50:08.297]	 -0.315	 -0.305
[09:50:08.305]	 -0.305	 -0.295
[09:50:08.313]	 -0.305	 -0.305
[09:50:08.320]	 -0.295	 -0.305
[09:50:08.328]	 -0.285	 -0.265
[09:50:08.336]	 -0.255	 -0.245
[09:50:08.344]	 -0.235	 -0.225
[09:50:08.352]	 -0.225	 -0.225
[09:50:08.359]	 -0.195	 -0.165
[09:50:08.367]	 -0.125	 -0.135
[09:50:08.375]	 -0.105	 -0.165
[09:50:08.383]	 -0.145	 -0.235
[09:50:08.391]	 -0.175	 -0.245
[09:50:08.398]	 -0.215	 -0.325
[09:50:08.406]	 -0.275	 -0.345
[09:50:08.414]	 -0.285	 -0.335
[09:50:08.422]	 -0.295	 -0.335
[09:50:08.430]	 -0.275	 -0.335
[09:50:08.438]	 -0.265	 -0.325
[09:50:08.445]	 -0.275	 -0.325
[09:50:08.453]	 -0.245	 -0.305
[09:50:08.461]	 -0.205	 -0.325
[09:50:08.469]	 -0.475	 -0.425
[09:50:08.477]	 -0.685	 -0.055
[09:50:08.484]	 -0.515	  0.195
[09:50:08.492]	  0.315	 -0.175
[09:50:08.500]	  1.585	 -0.155
[09:50:08.508]	  2.655	  0.435
[09:50:08.516]	  3.065	 -0.065
[09:50:08.523]	  1.265	 -1.335
[09:50:08.531]	 -0.565	 -1.095
[09:50:08.539]	 -0.965	 -0.695
[09:50:08.547]	 -0.765	 -0.415
[09:50:08.555]	 -0.535	 -0.095
[09:50:08.563]	 -0.255	  0.035
[09:50:08.570]	 -0.215	  0.025
[09:50:08.578]	 -0.165	  0.065
[09:50:08.586]	 -0.145	  0.065
[09:50:08.594]	 -0.095	  0.125
[09:50:08.602]	 -0.085	  0.135
[09:50:08.609]	 -0.085	  0.155
[09:50:08.617]	 -0.055	  0.185
[09:50:08.625]	 -0.005	  0.225
[09:50:08.633]	  0.015	  0.265
[09:50:08.641]	  0.065	  0.315
[09:50:08.648]	  0.095	  0.365
[09:50:08.656]	  0.135	  0.425
[09:50:08.664]	  0.185	  0.475
[09:50:08.672]	  0.255	  0.565
[09:50:08.680]	  0.315	  0.655
[09:50:08.688]	  0.405	  0.725
[09:50:08.695]	  0.475	  0.835
[09:50:08.703]	  0.565	  0.895
[09:50:08.711]	  0.665	  0.955
[09:50:08.719]	  0.755	  0.985
[09:50:08.727]	  0.815	  0.965
[09:50:08.734]	  0.845	  0.935
[09:50:08.742]	  0.875	  0.845
[09:50:08.750]	  0.865	  0.715
[09:50:08.758]	  0.815	  0.535
[09:50:08.766]	  0.675	  0.355
[09:50:08.773]	  0.535	  0.185
[09:50:08.781]	  0.385	  0.015
[09:50:08.789]	  0.265	 -0.105
[09:50:08.797]	  0.175	 -0.185
[09:50:08.805]	  0.105	 -0.215
[09:50:08.813]	  0.085	 -0.255
[09:50:08.820]	  0.065	 -0.265
[09:50:08.828]	  0.045	 -0.265
[09:50:08.836]	  0.065	 -0.285
[09:50:08.844]	  0.055	 -0.285
[09:50:08.852]	  0.065	 -0.295
[09:50:08.859]	  0.055	 -0.275
[09:50:08.867]	  0.065	 -0.265
[09:50:08.875]	  0.065	 -0.275
[09:50:08.883]	  0.075	 -0.275
[09:50:08.891]	  0.065	 -0.265
[09:50:08.898]	  0.085	 -0.255
[09:50:08.906]	  0.095	 -0.255
[09:50:08.914]	  0.095	 -0.265
[09:50:08.922]	  0.115	 -0.265
[09:50:08.930]	  0.085	 -0.245
[09:50:08.938]	  0.075	 -0.255
[09:50:08.945]	  0.095	 -0.275
[09:50:08.953]	  0.085	 -0.265
[09:50:08.961]	  0.115	 -0.275
[09:50:08.969]	  0.095	 -0.275
[09:50:08.977]	  0.105	 -0.295
[09:50:08.984]	  0.095	 -0.285
[09:50:08.992]	  0.095	 -0.285
[09:50:09.000]	  0.085	 -0.315
[09:50:09.008]	  0.075	 -0.335
[09:50:09.016]	  0.105	 -0.295
[09:50:09.023]	  0.095	 -0.325
[09:50:09.031]	  0.075	 -0.335
[09:50:09.039]	  0.075	 -0.335
[09:50:09.047]	  0.065	 -0.325
[09:50:09.055]	  0.065	 -0.335
[09:50:09.063]	  0.085	 -0.325
[09:50:09.070]	  0.085	 -0.335
[09:50:09.078]	  0.075	 -0.325
[09:50:09.086]	  0.095	 -0.315
[09:50:09.094]	  0.095	 -0.325
[09:50:09.102]	  0.085	 -0.335
[09:50:09.109]	  0.105	 -0.315
[09:50:09.117]	  0.095	 -0.325
[09:50:09.125]	  0.115	 -0.325
[09:50:09.133]	  0.095	 -0.305
[09:50:09.141]	  0.095	 -0.295
[09:50:09.148]	  0.125	 -0.315
[09:50:09.156]	  0.105	 -0.295
[09:50:09.164]	  0.115	 -0.285
[09:50:09.172]	  0.145	 -0.255
[09:50:09.180]	  0.115	 -0.235
[09:50:09.188]	  0.175	 -0.175
[09:50:09.195]	  0.225	 -0.155
[09:50:09.203]	  0.275	 -0.145
[09:50:09.211]	  0.235	 -0.235
[09:50:09.219]	  0.175	 -0.285
[09:50:09.227]	  0.145	 -0.325
[09:50:09.234]	  0.105	 -0.315
[09:50:09.242]	  0.065	 -0.315
[09:50:09.250]	  0.075	 -0.335
[09:50:09.258]	  0.065	 -0.335
[09:50:09.266]	  0.065	 -0.315
[09:50:09.273]	  0.095	 -0.305
[09:50:09.281]	  0.075	 -0.305
[09:50:09.289]	  0.115	 -0.295
[09:50:09.297]	 -0.085	 -0.355
[09:50:09.305]	 -0.325	  0.005
[09:50:09.313]	 -0.125	  0.345
[09:50:09.320]	  0.785	  0.095
[09:50:09.328]	  2.055	 -0.005
[09:50:09.336]	  2.865	  0.405
[09:50:09.344]	  3.125	 -0.485
[09:50:09.352]	  0.945	 -1.325
[09:50:09.359]	 -0.425	 -0.985
[09:50:09.367]	 -0.595	 -0.725
[09:50:09.375]	 -0.495	 -0.525
[09:50:09.383]	 -0.315	 -0.275
[09:50:09.391]	 -0.065	  0.005
[09:50:09.398]	  0.075	  0.045
[09:50:09.406]	  0.055	  0.025
[09:50:09.414]	  0.065	  0.065
[09:50:09.422]	  0.095	  0.095
[09:50:09.430]	  0.125	  0.135
[09:50:09.438]	  0.155	  0.175
[09:50:09.445]	  0.165	  0.205
[09:50:09.453]	  0.185	  0.255
[09:50:09.461]	  0.235	  0.265
[09:50:09.469]	  0.245	  0.315
[09:50:09.477]	  0.275	  0.385
[09:50:09.484]	  0.335	  0.445
[09:50:09.492]	  0.345	  0.495
[09:50:09.500]	  0.415	  0.575
[09:50:09.508]	  0.455	  0.655
[09:50:09.516]	  0.545	  0.755
[09:50:09.523]	  0.625	  0.835
[09:50:09.531]	  0.695	  0.885
[09:50:09.539]	  0.745	  0.915
[09:50:09.547]	  0.825	  0.925
[09:50:09.555]	  0.865	  0.905
[09:50:09.563]	  0.895	  0.825
[09:50:09.570]	  0.875	  0.715
[09:50:09.578]	  0.835	  0.585
[09:50:09.586]	  0.725	  0.405
[09:50:09.594]	  0.545	  0.205
[09:50:09.602]	  0.385	  0.075
[09:50:09.609]	  0.255	 -0.025
[09:50:09.617]	  0.165	 -0.095
[09:50:09.625]	  0.075	 -0.175
[09:50:09.633]	  0.025	 -0.205
[09:50:09.641]	  0.005	 -0.205
[09:50:09.648]	 -0.005	 -0.225
[09:50:09.656]	 -0.035	 -0.245
[09:50:09.664]	 -0.045	 -0.235
[09:50:09.672]	 -0.045	 -0.225
[09:50:09.680]	 -0.055	 -0.215
[09:50:09.688]	 -0.055	 -0.225
[09:50:09.695]	 -0.045	 -0.205
[09:50:09.703]	 -0.045	 -0.205
[09:50:09.711]	 -0.045	 -0.195
[09:50:09.719]	 -0.025	 -0.185
[09:50:09.727]	 -0.035	 -0.205
[09:50:09.734]	 -0.015	 -0.195
[09:50:09.742]	 -0.035	 -0.175
[09:50:09.750]	 -0.015	 -0.195
[09:50:09.758]	 -0.025	 -0.185
[09:50:09.766]	 -0.025	 -0.185
[09:50:09.773]	  0.005	 -0.205
[09:50:09.781]	 -0.035	 -0.195
[09:50:09.789]	 -0.015	 -0.215
[09:50:09.797]	 -0.025	 -0.215
[09:50:09.805]	 -0.045	 -0.225
[09:50:09.813]	 -0.055	 -0.225
[09:50:09.820]	 -0.065	 -0.255
[09:50:09.828]	 -0.065	 -0.245
[09:50:09.836]	 -0.055	 -0.255
[09:50:09.844]	 -0.075	 -0.245
[09:50:09.852]	 -0.085	 -0.285
[09:50:09.859]	 -0.095	 -0.275
[09:50:09.867]	 -0.105	 -0.255
[09:50:09.875]	 -0.125	 -0.285
[09:50:09.883]	 -0.105	 -0.275
[09:50:09.891]	 -0.115	 -0.265
[09:50:09.898]	 -0.085	 -0.265
[09:50:09.906]	 -0.115	 -0.275
[09:50:09.914]	 -0.135	 -0.265
[09:50:09.922]	 -0.125	 -0.265
[09:50:09.930]	 -0.125	 -0.265
[09:50:09.938]	 -0.135	 -0.275
[09:50:09.945]	 -0.135	 -0.265
[09:50:09.953]	 -0.135	 -0.255
[09:50:09.961]	 -0.115	 -0.245
[09:50:09.969]	 -0.125	 -0.265
[09:50:09.977]	 -0.135	 -0.265
[09:50:09.984]	 -0.125	 -0.265
[09:50:09.992]	 -0.155	 -0.255