     Time	   ECG1	   ECG2
(hh:mm:ss.mmm)	   (mV)	   (mV)
[11:39:00.000]	  0.255	  0.185
[11:39:00.008]	  0.245	  0.175
[11:39:00.016]	  0.235	  0.165
[11:39:00.023]	  0.235	  0.165
[11:39:00.031]	  0.235	  0.165
[11:39:00.039]	  0.225	  0.155
[11:39:00.047]	  0.215	  0.155
[11:39:00.055]	  0.215	  0.145
[11:39:00.063]	  0.205	  0.145
[11:39:00.070]	  0.205	  0.145
[11:39:00.078]	  0.195	  0.135
[11:39:00.086]	  0.195	  0.125
[11:39:00.094]	  0.185	  0.125
[11:39:00.102]	  0.175	  0.125
[11:39:00.109]	  0.165	  0.115
[11:39:00.117]	  0.175	  0.105
[11:39:00.125]	  0.165	  0.105
[11:39:00.133]	  0.155	  0.095
[11:39:00.141]	  0.145	  0.085
[11:39:00.148]	  0.125	  0.075
[11:39:00.156]	 -0.475	 -0.335
[11:39:00.164]	 -0.685	 -0.645
[11:39:00.172]	 -0.645	 -0.625
[11:39:00.180]	 -0.635	 -0.615
[11:39:00.188]	 -0.635	 -0.615
[11:39:00.195]	 -0.635	 -0.605
[11:39:00.203]	 -0.625	 -0.605
[11:39:00.211]	 -0.605	 -0.595
[11:39:00.219]	 -0.605	 -0.585
[11:39:00.227]	 -0.595	 -0.585
[11:39:00.234]	 -0.595	 -0.585
[11:39:00.242]	 -0.575	 -0.565
[11:39:00.250]	 -0.565	 -0.565
[11:39:00.258]	 -0.565	 -0.555
[11:39:00.266]	 -0.555	 -0.555
[11:39:00.273]	 -0.545	 -0.535
[11:39:00.281]	 -0.535	 -0.535
[11:39:00.289]	 -0.525	 -0.525
[11:39:00.297]	 -0.525	 -0.525
[11:39:00.305]	 -0.515	 -0.515
[11:39:00.313]	 -0.505	 -0.505
[11:39:00.320]	 -0.505	 -0.495
[11:39:00.328]	 -0.495	 -0.495
[11:39:00.336]	 -0.485	 -0.485
[11:39:00.344]	 -0.475	 -0.475
[11:39:00.352]	 -0.465	 -0.465
[11:39:00.359]	 -0.465	 -0.465
[11:39:00.367]	 -0.455	 -0.465
[11:39:00.375]	 -0.455	 -0.445
[11:39:00.383]	 -0.445	 -0.445
[11:39:00.391]	 -0.435	 -0.445
[11:39:00.398]	 -0.425	 -0.425
[11:39:00.406]	 -0.425	 -0.425
[11:39:00.414]	 -0.415	 -0.415
[11:39:00.422]	 -0.405	 -0.415
[11:39:00.430]	 -0.395	 -0.405
[11:39:00.438]	 -0.395	 -0.405
[11:39:00.445]	 -0.395	 -0.395
[11:39:00.453]	 -0.385	 -0.395
[11:39:00.461]	 -0.375	 -0.385
[11:39:00.469]	 -0.375	 -0.375
[11:39:00.477]	 -0.365	 -0.375
[11:39:00.484]	 -0.365	 -0.375
[11:39:00.492]	 -0.355	 -0.365
[11:39:00.500]	 -0.355	 -0.355
[11:39:00.508]	 -0.345	 -0.345
[11:39:00.516]	 -0.345	 -0.345
[11:39:00.523]	 -0.335	 -0.345
[11:39:00.531]	 -0.325	 -0.335
[11:39:00.539]	 -0.325	 -0.325
[11:39:00.547]	 -0.315	 -0.325
[11:39:00.555]	 -0.315	 -0.325
[11:39:00.563]	 -0.305	 -0.315
[11:39:00.570]	 -0.305	 -0.305
[11:39:00.578]	 -0.305	 -0.305
[11:39:00.586]	 -0.295	 -0.305
[11:39:00.594]	 -0.285	 -0.295
[11:39:00.602]	 -0.285	 -0.285
[11:39:00.609]	 -0.275	 -0.285
[11:39:00.617]	 -0.275	 -0.285
[11:39:00.625]	 -0.265	 -0.275
[11:39:00.633]	 -0.255	 -0.265
[11:39:00.641]	 -0.235	 -0.255
[11:39:00.648]	 -0.265	 -0.275
[11:39:00.656]	  0.555	  0.455
[11:39:00.664]	  0.555	  0.475
[11:39:00.672]	  0.535	  0.455
[11:39:00.680]	  0.535	  0.445
[11:39:00.688]	  0.525	  0.445
[11:39:00.695]	  0.515	  0.445
[11:39:00.703]	  0.505	  0.425
[11:39:00.711]	  0.505	  0.425
[11:39:00.719]	  0.495	  0.415
[11:39:00.727]	  0.485	  0.415
[11:39:00.734]	  0.475	  0.405
[11:39:00.742]	  0.465	  0.395
[11:39:00.750]	  0.465	  0.395
[11:39:00.758]	  0.455	  0.385
[11:39:00.766]	  0.445	  0.375
[11:39:00.773]	  0.435	  0.365
[11:39:00.781]	  0.425	  0.365
[11:39:00.789]	  0.425	  0.355
[11:39:00.797]	  0.415	  0.345
[11:39:00.805]	  0.415	  0.345
[11:39:00.813]	  0.405	  0.345
[11:39:00.820]	  0.395	  0.335
[11:39:00.828]	  0.385	  0.325
[11:39:00.836]	  0.375	  0.315
[11:39:00.844]	  0.375	  0.315
[11:39:00.852]	  0.365	  0.315
[11:39:00.859]	  0.355	  0.295
[11:39:00.867]	  0.345	  0.295
[11:39:00.875]	  0.345	  0.295
[11:39:00.883]	  0.335	  0.285
[11:39:00.891]	  0.325	  0.275
[11:39:00.898]	  0.325	  0.275
[11:39:00.906]	  0.315	  0.265
[11:39:00.914]	  0.315	  0.265
[11:39:00.922]	  0.305	  0.255
[11:39:00.930]	  0.295	  0.255
[11:39:00.938]	  0.295	  0.245
[11:39:00.945]	  0.285	  0.235
[11:39:00.953]	  0.285	  0.235
[11:39:00.961]	  0.275	  0.225
[11:39:00.969]	  0.275	  0.225
[11:39:00.977]	  0.265	  0.215
[11:39:00.984]	  0.265	  0.215
[11:39:00.992]	  0.255	  0.205
[11:39:01.000]	  0.255	  0.205
[11:39:01.008]	  0.245	  0.195
[11:39:01.016]	  0.235	  0.185
[11:39:01.023]	  0.235	  0.185
[11:39:01.031]	  0.225	  0.185
[11:39:01.039]	  0.225	  0.175
[11:39:01.047]	  0.225	  0.175
[11:39:01.055]	  0.215	  0.165
[11:39:01.063]	  0.205	  0.165
[11:39:01.070]	  0.205	  0.165
[11:39:01.078]	  0.205	  0.155
[11:39:01.086]	  0.195	  0.155
[11:39:01.094]	  0.185	  0.145
[11:39:01.102]	  0.185	  0.145
[11:39:01.109]	  0.185	  0.135
[11:39:01.117]	  0.175	  0.135
[11:39:01.125]	  0.165	  0.125
[11:39:01.133]	  0.165	  0.125
[11:39:01.141]	  0.145	  0.115
[11:39:01.148]	  0.155	  0.115
[11:39:01.156]	 -0.665	 -0.555
[11:39:01.164]	 -0.655	 -0.605
[11:39:01.172]	 -0.635	 -0.595
[11:39:01.180]	 -0.625	 -0.585
[11:39:01.188]	 -0.615	 -0.575
[11:39:01.195]	 -0.615	 -0.575
[11:39:01.203]	 -0.605	 -0.565
[11:39:01.211]	 -0.595	 -0.555
[11:39:01.219]	 -0.595	 -0.555
[11:39:01.227]	 -0.585	 -0.545
[11:39:01.234]	 -0.575	 -0.535
[11:39:01.242]	 -0.565	 -0.535
[11:39:01.250]	 -0.565	 -0.515
[11:39:01.258]	 -0.555	 -0.515
[11:39:01.266]	 -0.545	 -0.515
[11:39:01.273]	 -0.535	 -0.505
[11:39:01.281]	 -0.535	 -0.495
[11:39:01.289]	 -0.515	 -0.485
[11:39:01.297]	 -0.515	 -0.485
[11:39:01.305]	 -0.505	 -0.475
[11:39:01.313]	 -0.505	 -0.465
[11:39:01.320]	 -0.485	 -0.465
[11:39:01.328]	 -0.485	 -0.465
[11:39:01.336]	 -0.475	 -0.455
[11:39:01.344]	 -0.475	 -0.445
[11:39:01.352]	 -0.465	 -0.435
[11:39:01.359]	 -0.455	 -0.435
[11:39:01.367]	 -0.445	 -0.425
[11:39:01.375]	 -0.445	 -0.415
[11:39:01.383]	 -0.435	 -0.405
[11:39:01.391]	 -0.425	 -0.415
[11:39:01.398]	 -0.415	 -0.405
[11:39:01.406]	 -0.415	 -0.395
[11:39:01.414]	 -0.405	 -0.385
[11:39:01.422]	 -0.405	 -0.385
[11:39:01.430]	 -0.395	 -0.375
[11:39:01.438]	 -0.385	 -0.375
[11:39:01.445]	 -0.385	 -0.365
[11:39:01.453]	 -0.375	 -0.365
[11:39:01.461]	 -0.375	 -0.355
[11:39:01.469]	 -0.365	 -0.345
[11:39:01.477]	 -0.355	 -0.345
[11:39:01.484]	 -0.355	 -0.345
[11:39:01.492]	 -0.345	 -0.335
[11:39:01.500]	 -0.345	 -0.325
[11:39:01.508]	 -0.335	 -0.325
[11:39:01.516]	 -0.335	 -0.325
[11:39:01.523]	 -0.325	 -0.315
[11:39:01.531]	 -0.315	 -0.305
[11:39:01.539]	 -0.315	 -0.305
[11:39:01.547]	 -0.305	 -0.305
[11:39:01.555]	 -0.295	 -0.295
[11:39:01.563]	 -0.295	 -0.285
[11:39:01.570]	 -0.285	 -0.285
[11:39:01.578]	 -0.285	 -0.285
[11:39:01.586]	 -0.275	 -0.275
[11:39:01.594]	 -0.265	 -0.265
[11:39:01.602]	 -0.265	 -0.265
[11:39:01.609]	 -0.265	 -0.265
[11:39:01.617]	 -0.255	 -0.255
[11:39:01.625]	 -0.245	 -0.245
[11:39:01.633]	 -0.245	 -0.235
[11:39:01.641]	 -0.235	 -0.235
[11:39:01.648]	 -0.215	 -0.225
[11:39:01.656]	  0.475	  0.345
[11:39:01.664]	  0.575	  0.505
[11:39:01.672]	  0.555	  0.475
[11:39:01.680]	  0.545	  0.475
[11:39:01.688]	  0.545	  0.465
[11:39:01.695]	  0.535	  0.465
[11:39:01.703]	  0.525	  0.455
[11:39:01.711]	  0.515	  0.445
[11:39:01.719]	  0.515	  0.445
[11:39:01.727]	  0.505	  0.435
[11:39:01.734]	  0.495	  0.425
[11:39:01.742]	  0.495	  0.415
[11:39:01.750]	  0.485	  0.415
[11:39:01.758]	  0.475	  0.405
[11:39:01.766]	  0.465	  0.385
[11:39:01.773]	  0.465	  0.385
[11:39:01.781]	  0.455	  0.385
[11:39:01.789]	  0.445	  0.375
[11:39:01.797]	  0.435	  0.365
[11:39:01.805]	  0.435	  0.355
[11:39:01.813]	  0.425	  0.355
[11:39:01.820]	  0.415	  0.345
[11:39:01.828]	  0.415	  0.335
[11:39:01.836]	  0.405	  0.335
[11:39:01.844]	  0.395	  0.325
[11:39:01.852]	  0.385	  0.315
[11:39:01.859]	  0.385	  0.315
[11:39:01.867]	  0.375	  0.305
[11:39:01.875]	  0.365	  0.305
[11:39:01.883]	  0.365	  0.305
[11:39:01.891]	  0.355	  0.295
[11:39:01.898]	  0.345	  0.285
[11:39:01.906]	  0.345	  0.285
[11:39:01.914]	  0.335	  0.275
[11:39:01.922]	  0.335	  0.265
[11:39:01.930]	  0.325	  0.265
[11:39:01.938]	  0.325	  0.265
[11:39:01.945]	  0.315	  0.265
[11:39:01.953]	  0.315	  0.255
[11:39:01.961]	  0.305	  0.245
[11:39:01.969]	  0.295	  0.245
[11:39:01.977]	  0.295	  0.235
[11:39:01.984]	  0.285	  0.225
[11:39:01.992]	  0.285	  0.225
[11:39:02.000]	  0.275	  0.225
[11:39:02.008]	  0.275	  0.215
[11:39:02.016]	  0.265	  0.215
[11:39:02.023]	  0.265	  0.205
[11:39:02.031]	  0.255	  0.205
[11:39:02.039]	  0.255	  0.205
[11:39:02.047]	  0.245	  0.195
[11:39:02.055]	  0.235	  0.185
[11:39:02.063]	  0.235	  0.185
[11:39:02.070]	  0.225	  0.185
[11:39:02.078]	  0.225	  0.175
[11:39:02.086]	  0.215	  0.175
[11:39:02.094]	  0.215	  0.165
[11:39:02.102]	  0.205	  0.165
[11:39:02.109]	  0.205	  0.155
[11:39:02.117]	  0.195	  0.155
[11:39:02.125]	  0.195	  0.145
[11:39:02.133]	  0.185	  0.145
[11:39:02.141]	  0.165	  0.135
[11:39:02.148]	  0.155	  0.115
[11:39:02.156]	 -0.435	 -0.335
[11:39:02.164]	 -0.645	 -0.605
[11:39:02.172]	 -0.615	 -0.585
[11:39:02.180]	 -0.605	 -0.575
[11:39:02.188]	 -0.605	 -0.565
[11:39:02.195]	 -0.595	 -0.565
[11:39:02.203]	 -0.595	 -0.565
[11:39:02.211]	 -0.585	 -0.555
[11:39:02.219]	 -0.575	 -0.545
[11:39:02.227]	 -0.565	 -0.535
[11:39:02.234]	 -0.555	 -0.535
[11:39:02.242]	 -0.545	 -0.525
[11:39:02.250]	 -0.535	 -0.515
[11:39:02.258]	 -0.535	 -0.515
[11:39:02.266]	 -0.525	 -0.505
[11:39:02.273]	 -0.505	 -0.495
[11:39:02.281]	 -0.505	 -0.485
[11:39:02.289]	 -0.495	 -0.485
[11:39:02.297]	 -0.485	 -0.475
[11:39:02.305]	 -0.475	 -0.475
[11:39:02.313]	 -0.475	 -0.465
[11:39:02.320]	 -0.465	 -0.455
[11:39:02.328]	 -0.465	 -0.455
[11:39:02.336]	 -0.455	 -0.445
[11:39:02.344]	 -0.445	 -0.435
[11:39:02.352]	 -0.435	 -0.425
[11:39:02.359]	 -0.425	 -0.425
[11:39:02.367]	 -0.425	 -0.425
[11:39:02.375]	 -0.415	 -0.415
[11:39:02.383]	 -0.405	 -0.405
[11:39:02.391]	 -0.405	 -0.405
[11:39:02.398]	 -0.395	 -0.405
[11:39:02.406]	 -0.385	 -0.395
[11:39:02.414]	 -0.385	 -0.385
[11:39:02.422]	 -0.375	 -0.385
[11:39:02.430]	 -0.375	 -0.375
[11:39:02.438]	 -0.365	 -0.365
[11:39:02.445]	 -0.355	 -0.365
[11:39:02.453]	 -0.355	 -0.365
[11:39:02.461]	 -0.345	 -0.355
[11:39:02.469]	 -0.335	 -0.345
[11:39:02.477]	 -0.335	 -0.345
[11:39:02.484]	 -0.335	 -0.335
[11:39:02.492]	 -0.325	 -0.335
[11:39:02.500]	 -0.315	 -0.325
[11:39:02.508]	 -0.315	 -0.325
[11:39:02.516]	 -0.305	 -0.325
[11:39:02.523]	 -0.295	 -0.315
[11:39:02.531]	 -0.295	 -0.305
[11:39:02.539]	 -0.285	 -0.305
[11:39:02.547]	 -0.285	 -0.305
[11:39:02.555]	 -0.275	 -0.295
[11:39:02.563]	 -0.265	 -0.285
[11:39:02.570]	 -0.265	 -0.285
[11:39:02.578]	 -0.265	 -0.285
[11:39:02.586]	 -0.255	 -0.275
[11:39:02.594]	 -0.255	 -0.275
[11:39:02.602]	 -0.245	 -0.265
[11:39:02.609]	 -0.235	 -0.265
[11:39:02.617]	 -0.225	 -0.255
[11:39:02.625]	 -0.225	 -0.245
[11:39:02.633]	 -0.215	 -0.245
[11:39:02.641]	 -0.195	 -0.235
[11:39:02.648]	 -0.215	 -0.255
[11:39:02.656]	  0.615	  0.465
[11:39:02.664]	  0.605	  0.495
[11:39:02.672]	  0.585	  0.475
[11:39:02.680]	  0.575	  0.465
[11:39:02.688]	  0.565	  0.465
[11:39:02.695]	  0.565	  0.455
[11:39:02.703]	  0.555	  0.455
[11:39:02.711]	  0.545	  0.445
[11:39:02.719]	  0.535	  0.435
[11:39:02.727]	  0.535	  0.435
[11:39:02.734]	  0.525	  0.425
[11:39:02.742]	  0.515	  0.415
[11:39:02.750]	  0.515	  0.405
[11:39:02.758]	  0.505	  0.395
[11:39:02.766]	  0.495	  0.385
[11:39:02.773]	  0.485	  0.385
[11:39:02.781]	  0.485	  0.375
[11:39:02.789]	  0.475	  0.375
[11:39:02.797]	  0.465	  0.365
[11:39:02.805]	  0.455	  0.355
[11:39:02.813]	  0.445	  0.355
[11:39:02.820]	  0.445	  0.345
[11:39:02.828]	  0.435	  0.335
[11:39:02.836]	  0.425	  0.325
[11:39:02.844]	  0.415	  0.325
[11:39:02.852]	  0.415	  0.315
[11:39:02.859]	  0.405	  0.305
[11:39:02.867]	  0.395	  0.295
[11:39:02.875]	  0.385	  0.295
[11:39:02.883]	  0.385	  0.295
[11:39:02.891]	  0.375	  0.285
[11:39:02.898]	  0.365	  0.275
[11:39:02.906]	  0.365	  0.275
[11:39:02.914]	  0.355	  0.265
[11:39:02.922]	  0.345	  0.255
[11:39:02.930]	  0.345	  0.255
[11:39:02.938]	  0.335	  0.255
[11:39:02.945]	  0.335	  0.245
[11:39:02.953]	  0.325	  0.235
[11:39:02.961]	  0.325	  0.225
[11:39:02.969]	  0.315	  0.225
[11:39:02.977]	  0.315	  0.225
[11:39:02.984]	  0.305	  0.215
[11:39:02.992]	  0.295	  0.215
[11:39:03.000]	  0.295	  0.205
[11:39:03.008]	  0.295	  0.195
[11:39:03.016]	  0.285	  0.185
[11:39:03.023]	  0.275	  0.185
[11:39:03.031]	  0.275	  0.185
[11:39:03.039]	  0.265	  0.175
[11:39:03.047]	  0.265	  0.165
[11:39:03.055]	  0.255	  0.165
[11:39:03.063]	  0.255	  0.165
[11:39:03.070]	  0.245	  0.165
[11:39:03.078]	  0.245	  0.155
[11:39:03.086]	  0.235	  0.145
[11:39:03.094]	  0.225	  0.145
[11:39:03.102]	  0.225	  0.145
[11:39:03.109]	  0.225	  0.125
[11:39:03.117]	  0.215	  0.125
[11:39:03.125]	  0.215	  0.125
[11:39:03.133]	  0.205	  0.115
[11:39:03.141]	  0.195	  0.105
[11:39:03.148]	  0.175	  0.095
[11:39:03.156]	 -0.475	 -0.495
[11:39:03.164]	 -0.585	 -0.625
[11:39:03.172]	 -0.565	 -0.615
[11:39:03.180]	 -0.555	 -0.605
[11:39:03.188]	 -0.555	 -0.595
[11:39:03.195]	 -0.545	 -0.595
[11:39:03.203]	 -0.545	 -0.585
[11:39:03.211]	 -0.535	 -0.585
[11:39:03.219]	 -0.525	 -0.575
[11:39:03.227]	 -0.515	 -0.565
[11:39:03.234]	 -0.515	 -0.555
[11:39:03.242]	 -0.505	 -0.545
[11:39:03.250]	 -0.505	 -0.545
[11:39:03.258]	 -0.495	 -0.535
[11:39:03.266]	 -0.485	 -0.535
[11:39:03.273]	 -0.485	 -0.515
[11:39:03.281]	 -0.475	 -0.515
[11:39:03.289]	 -0.465	 -0.505
[11:39:03.297]	 -0.455	 -0.505
[11:39:03.305]	 -0.445	 -0.495
[11:39:03.313]	 -0.445	 -0.485
[11:39:03.320]	 -0.435	 -0.485
[11:39:03.328]	 -0.435	 -0.475
[11:39:03.336]	 -0.415	 -0.465
[11:39:03.344]	 -0.415	 -0.465
[11:39:03.352]	 -0.405	 -0.455
[11:39:03.359]	 -0.395	 -0.455
[11:39:03.367]	 -0.395	 -0.445
[11:39:03.375]	 -0.385	 -0.435
[11:39:03.383]	 -0.385	 -0.425
[11:39:03.391]	 -0.375	 -0.425
[11:39:03.398]	 -0.365	 -0.415
[11:39:03.406]	 -0.365	 -0.415
[11:39:03.414]	 -0.355	 -0.405
[11:39:03.422]	 -0.355	 -0.405
[11:39:03.430]	 -0.345	 -0.395
[11:39:03.438]	 -0.335	 -0.385
[11:39:03.445]	 -0.335	 -0.385
[11:39:03.453]	 -0.335	 -0.385
[11:39:03.461]	 -0.325	 -0.375
[11:39:03.469]	 -0.325	 -0.365
[11:39:03.477]	 -0.325	 -0.365
[11:39:03.484]	 -0.315	 -0.355
[11:39:03.492]	 -0.305	 -0.355
[11:39:03.500]	 -0.305	 -0.345
[11:39:03.508]	 -0.295	 -0.345
[11:39:03.516]	 -0.295	 -0.345
[11:39:03.523]	 -0.295	 -0.335
[11:39:03.531]	 -0.285	 -0.325
[11:39:03.539]	 -0.275	 -0.325
[11:39:03.547]	 -0.275	 -0.315
[11:39:03.555]	 -0.275	 -0.315
[11:39:03.563]	 -0.275	 -0.305
[11:39:03.570]	 -0.265	 -0.305
[11:39:03.578]	 -0.255	 -0.305
[11:39:03.586]	 -0.245	 -0.295
[11:39:03.594]	 -0.245	 -0.285
[11:39:03.602]	 -0.245	 -0.275
[11:39:03.609]	 -0.235	 -0.285
[11:39:03.617]	 -0.225	 -0.275
[11:39:03.625]	 -0.215	 -0.265
[11:39:03.633]	 -0.215	 -0.255
[11:39:03.641]	 -0.205	 -0.255
[11:39:03.648]	 -0.195	 -0.235
[11:39:03.656]	  0.415	  0.255
[11:39:03.664]	  0.615	  0.495
[11:39:03.672]	  0.585	  0.465
[11:39:03.680]	  0.565	  0.465
[11:39:03.688]	  0.565	  0.455
[11:39:03.695]	  0.555	  0.455
[11:39:03.703]	  0.545	  0.445
[11:39:03.711]	  0.545	  0.435
[11:39:03.719]	  0.535	  0.425
[11:39:03.727]	  0.525	  0.425
[11:39:03.734]	  0.515	  0.415
[11:39:03.742]	  0.515	  0.405
[11:39:03.750]	  0.505	  0.395
[11:39:03.758]	  0.495	  0.395
[11:39:03.766]	  0.485	  0.385
[11:39:03.773]	  0.485	  0.375
[11:39:03.781]	  0.475	  0.375
[11:39:03.789]	  0.465	  0.375
[11:39:03.797]	  0.455	  0.355
[11:39:03.805]	  0.455	  0.355
[11:39:03.813]	  0.445	  0.355
[11:39:03.820]	  0.435	  0.345
[11:39:03.828]	  0.425	  0.335
[11:39:03.836]	  0.425	  0.335
[11:39:03.844]	  0.415	  0.325
[11:39:03.852]	  0.405	  0.325
[11:39:03.859]	  0.395	  0.305
[11:39:03.867]	  0.395	  0.305
[11:39:03.875]	  0.395	  0.295
[11:39:03.883]	  0.385	  0.295
[11:39:03.891]	  0.375	  0.285
[11:39:03.898]	  0.365	  0.285
[11:39:03.906]	  0.365	  0.275
[11:39:03.914]	  0.355	  0.275
[11:39:03.922]	  0.345	  0.265
[11:39:03.930]	  0.345	  0.255
[11:39:03.938]	  0.345	  0.255
[11:39:03.945]	  0.335	  0.245
[11:39:03.953]	  0.315	  0.235
[11:39:03.961]	  0.315	  0.235
[11:39:03.969]	  0.315	  0.235
[11:39:03.977]	  0.305	  0.235
[11:39:03.984]	  0.295	  0.225
[11:39:03.992]	  0.295	  0.215
[11:39:04.000]	  0.295	  0.215
[11:39:04.008]	  0.285	  0.205
[11:39:04.016]	  0.275	  0.195
[11:39:04.023]	  0.275	  0.195
[11:39:04.031]	  0.265	  0.195
[11:39:04.039]	  0.265	  0.185
[11:39:04.047]	  0.255	  0.185
[11:39:04.055]	  0.255	  0.175
[11:39:04.063]	  0.245	  0.175
[11:39:04.070]	  0.235	  0.175
[11:39:04.078]	  0.235	  0.165
[11:39:04.086]	  0.225	  0.165
[11:39:04.094]	  0.225	  0.155
[11:39:04.102]	  0.215	  0.155
[11:39:04.109]	  0.215	  0.145
[11:39:04.117]	  0.205	  0.145
[11:39:04.125]	  0.195	  0.135
[11:39:04.133]	  0.185	  0.135
[11:39:04.141]	  0.175	  0.115
[11:39:04.148]	  0.215	  0.165
[11:39:04.156]	 -0.645	 -0.565
[11:39:04.164]	 -0.625	 -0.585
[11:39:04.172]	 -0.605	 -0.575
[11:39:04.180]	 -0.595	 -0.565
[11:39:04.188]	 -0.585	 -0.565
[11:39:04.195]	 -0.585	 -0.555
[11:39:04.203]	 -0.575	 -0.555
[11:39:04.211]	 -0.565	 -0.545
[11:39:04.219]	 -0.565	 -0.535
[11:39:04.227]	 -0.545	 -0.535
[11:39:04.234]	 -0.545	 -0.535
[11:39:04.242]	 -0.535	 -0.525
[11:39:04.250]	 -0.525	 -0.515
[11:39:04.258]	 -0.515	 -0.505
[11:39:04.266]	 -0.515	 -0.505
[11:39:04.273]	 -0.505	 -0.495
[11:39:04.281]	 -0.495	 -0.485
[11:39:04.289]	 -0.495	 -0.485
[11:39:04.297]	 -0.475	 -0.475
[11:39:04.305]	 -0.475	 -0.465
[11:39:04.313]	 -0.465	 -0.465
[11:39:04.320]	 -0.455	 -0.455
[11:39:04.328]	 -0.455	 -0.455
[11:39:04.336]	 -0.445	 -0.445
[11:39:04.344]	 -0.435	 -0.435
[11:39:04.352]	 -0.425	 -0.425
[11:39:04.359]	 -0.415	 -0.425
[11:39:04.367]	 -0.415	 -0.415
[11:39:04.375]	 -0.405	 -0.405
[11:39:04.383]	 -0.405	 -0.405
[11:39:04.391]	 -0.405	 -0.405
[11:39:04.398]	 -0.385	 -0.395
[11:39:04.406]	 -0.385	 -0.385
[11:39:04.414]	 -0.385	 -0.385
[11:39:04.422]	 -0.375	 -0.375
[11:39:04.430]	 -0.365	 -0.365
[11:39:04.438]	 -0.355	 -0.365
[11:39:04.445]	 -0.355	 -0.355
[11:39:04.453]	 -0.345	 -0.355
[11:39:04.461]	 -0.345	 -0.345
[11:39:04.469]	 -0.335	 -0.335
[11:39:04.477]	 -0.335	 -0.335
[11:39:04.484]	 -0.325	 -0.325
[11:39:04.492]	 -0.315	 -0.325
[11:39:04.500]	 -0.305	 -0.315
[11:39:04.508]	 -0.305	 -0.315
[11:39:04.516]	 -0.295	 -0.315
[11:39:04.523]	 -0.285	 -0.305
[11:39:04.531]	 -0.275	 -0.295
[11:39:04.539]	 -0.275	 -0.295
[11:39:04.547]	 -0.265	 -0.285
[11:39:04.555]	 -0.265	 -0.285
[11:39:04.563]	 -0.255	 -0.275
[11:39:04.570]	 -0.255	 -0.275
[11:39:04.578]	 -0.245	 -0.265
[11:39:04.586]	 -0.245	 -0.265
[11:39:04.594]	 -0.235	 -0.255
[11:39:04.602]	 -0.235	 -0.255
[11:39:04.609]	 -0.225	 -0.255
[11:39:04.617]	 -0.225	 -0.245
[11:39:04.625]	 -0.215	 -0.235
[11:39:04.633]	 -0.215	 -0.225
[11:39:04.641]	 -0.205	 -0.225
[11:39:04.648]	 -0.185	 -0.215
[11:39:04.656]	  0.445	  0.335
[11:39:04.664]	  0.605	  0.505
[11:39:04.672]	  0.575	  0.485
[11:39:04.680]	  0.575	  0.475
[11:39:04.688]	  0.565	  0.475
[11:39:04.695]	  0.565	  0.465
[11:39:04.703]	  0.555	  0.455
[11:39:04.711]	  0.545	  0.455
[11:39:04.719]	  0.535	  0.445
[11:39:04.727]	  0.525	  0.435
[11:39:04.734]	  0.525	  0.435
[11:39:04.742]	  0.515	  0.425
[11:39:04.750]	  0.495	  0.425
[11:39:04.758]	  0.495	  0.415
[11:39:04.766]	  0.485	  0.405
[11:39:04.773]	  0.475	  0.395
[11:39:04.781]	  0.465	  0.385
[11:39:04.789]	  0.465	  0.385
[11:39:04.797]	  0.455	  0.375
[11:39:04.805]	  0.445	  0.375
[11:39:04.813]	  0.435	  0.375
[11:39:04.820]	  0.425	  0.355
[11:39:04.828]	  0.415	  0.355
[11:39:04.836]	  0.415	  0.345
[11:39:04.844]	  0.405	  0.345
[11:39:04.852]	  0.395	  0.335
[11:39:04.859]	  0.385	  0.325
[11:39:04.867]	  0.385	  0.315
[11:39:04.875]	  0.375	  0.315
[11:39:04.883]	  0.375	  0.315
[11:39:04.891]	  0.355	  0.305
[11:39:04.898]	  0.355	  0.295
[11:39:04.906]	  0.345	  0.285
[11:39:04.914]	  0.345	  0.285
[11:39:04.922]	  0.335	  0.275
[11:39:04.930]	  0.335	  0.275
[11:39:04.938]	  0.325	  0.265
[11:39:04.945]	  0.315	  0.265
[11:39:04.953]	  0.315	  0.255
[11:39:04.961]	  0.305	  0.255
[11:39:04.969]	  0.295	  0.245
[11:39:04.977]	  0.295	  0.235
[11:39:04.984]	  0.285	  0.235
[11:39:04.992]	  0.285	  0.225
[11:39:05.000]	  0.275	  0.225
[11:39:05.008]	  0.275	  0.225
[11:39:05.016]	  0.265	  0.215
[11:39:05.023]	  0.265	  0.215
[11:39:05.031]	  0.255	  0.205
[11:39:05.039]	  0.255	  0.205
[11:39:05.047]	  0.245	  0.195
[11:39:05.055]	  0.245	  0.195
[11:39:05.063]	  0.235	  0.195
[11:39:05.070]	  0.235	  0.185
[11:39:05.078]	  0.225	  0.175
[11:39:05.086]	  0.225	  0.175
[11:39:05.094]	  0.215	  0.175
[11:39:05.102]	  0.215	  0.165
[11:39:05.109]	  0.205	  0.155
[11:39:05.117]	  0.205	  0.155
[11:39:05.125]	  0.195	  0.155
[11:39:05.133]	  0.185	  0.145
[11:39:05.141]	  0.185	  0.135
[11:39:05.148]	  0.165	  0.125
[11:39:05.156]	 -0.315	 -0.245
[11:39:05.164]	 -0.645	 -0.595
[11:39:05.172]	 -0.625	 -0.575
[11:39:05.180]	 -0.605	 -0.565
[11:39:05.188]	 -0.595	 -0.565
[11:39:05.195]	 -0.595	 -0.555
[11:39:05.203]	 -0.595	 -0.555
[11:39:05.211]	 -0.585	 -0.545
[11:39:05.219]	 -0.575	 -0.535
[11:39:05.227]	 -0.575	 -0.525
[11:39:05.234]	 -0.565	 -0.525
[11:39:05.242]	 -0.555	 -0.515
[11:39:05.250]	 -0.545	 -0.505
[11:39:05.258]	 -0.545	 -0.495
[11:39:05.266]	 -0.535	 -0.495
[11:39:05.273]	 -0.525	 -0.485
[11:39:05.281]	 -0.515	 -0.475
[11:39:05.289]	 -0.515	 -0.475
[11:39:05.297]	 -0.505	 -0.465
[11:39:05.305]	 -0.495	 -0.455
[11:39:05.313]	 -0.485	 -0.455
[11:39:05.320]	 -0.485	 -0.445
[11:39:05.328]	 -0.475	 -0.445
[11:39:05.336]	 -0.465	 -0.435
[11:39:05.344]	 -0.465	 -0.425
[11:39:05.352]	 -0.455	 -0.415
[11:39:05.359]	 -0.445	 -0.425
[11:39:05.367]	 -0.435	 -0.415
[11:39:05.375]	 -0.425	 -0.405
[11:39:05.383]	 -0.425	 -0.395
[11:39:05.391]	 -0.425	 -0.395
[11:39:05.398]	 -0.415	 -0.385
[11:39:05.406]	 -0.405	 -0.375
[11:39:05.414]	 -0.405	 -0.375
[11:39:05.422]	 -0.395	 -0.375
[11:39:05.430]	 -0.385	 -0.365
[11:39:05.438]	 -0.375	 -0.355
[11:39:05.445]	 -0.375	 -0.345
[11:39:05.453]	 -0.365	 -0.345
[11:39:05.461]	 -0.365	 -0.345
[11:39:05.469]	 -0.355	 -0.335
[11:39:05.477]	 -0.345	 -0.325
[11:39:05.484]	 -0.345	 -0.325
[11:39:05.492]	 -0.335	 -0.325
[11:39:05.500]	 -0.325	 -0.315
[11:39:05.508]	 -0.325	 -0.305
[11:39:05.516]	 -0.325	 -0.305
[11:39:05.523]	 -0.315	 -0.305
[11:39:05.531]	 -0.305	 -0.295
[11:39:05.539]	 -0.305	 -0.295
[11:39:05.547]	 -0.305	 -0.285
[11:39:05.555]	 -0.295	 -0.285
[11:39:05.563]	 -0.295	 -0.275
[11:39:05.570]	 -0.285	 -0.275
[11:39:05.578]	 -0.285	 -0.275
[11:39:05.586]	 -0.285	 -0.265
[11:39:05.594]	 -0.275	 -0.255
[11:39:05.602]	 -0.265	 -0.255
[11:39:05.609]	 -0.265	 -0.255
[11:39:05.617]	 -0.255	 -0.245
[11:39:05.625]	 -0.255	 -0.245
[11:39:05.633]	 -0.245	 -0.235
[11:39:05.641]	 -0.235	 -0.225
[11:39:05.648]	 -0.225	 -0.215
[11:39:05.656]	 -0.045	 -0.065
[11:39:05.664]	  0.585	  0.525
[11:39:05.672]	  0.555	  0.495
[11:39:05.680]	  0.545	  0.485
[11:39:05.688]	  0.545	  0.485
[11:39:05.695]	  0.535	  0.475
[11:39:05.703]	  0.525	  0.465
[11:39:05.711]	  0.515	  0.465
[11:39:05.719]	  0.505	  0.455
[11:39:05.727]	  0.495	  0.445
[11:39:05.734]	  0.495	  0.435
[11:39:05.742]	  0.485	  0.425
[11:39:05.750]	  0.475	  0.425
[11:39:05.758]	  0.465	  0.415
[11:39:05.766]	  0.455	  0.405
[11:39:05.773]	  0.455	  0.405
[11:39:05.781]	  0.435	  0.395
[11:39:05.789]	  0.435	  0.385
[11:39:05.797]	  0.425	  0.375
[11:39:05.805]	  0.415	  0.375
[11:39:05.813]	  0.415	  0.375
[11:39:05.820]	  0.405	  0.365
[11:39:05.828]	  0.395	  0.355
[11:39:05.836]	  0.395	  0.345
[11:39:05.844]	  0.385	  0.345
[11:39:05.852]	  0.375	  0.335
[11:39:05.859]	  0.375	  0.325
[11:39:05.867]	  0.365	  0.315
[11:39:05.875]	  0.355	  0.315
[11:39:05.883]	  0.345	  0.305
[11:39:05.891]	  0.345	  0.305
[11:39:05.898]	  0.335	  0.295
[11:39:05.906]	  0.325	  0.285
[11:39:05.914]	  0.325	  0.285
[11:39:05.922]	  0.315	  0.275
[11:39:05.930]	  0.315	  0.265
[11:39:05.938]	  0.305	  0.265
[11:39:05.945]	  0.295	  0.265
[11:39:05.953]	  0.295	  0.255
[11:39:05.961]	  0.285	  0.245
[11:39:05.969]	  0.275	  0.245
[11:39:05.977]	  0.275	  0.235
[11:39:05.984]	  0.265	  0.235
[11:39:05.992]	  0.265	  0.225
[11:39:06.000]	  0.255	  0.225
[11:39:06.008]	  0.245	  0.215
[11:39:06.016]	  0.245	  0.205
[11:39:06.023]	  0.235	  0.205
[11:39:06.031]	  0.235	  0.205
[11:39:06.039]	  0.225	  0.195
[11:39:06.047]	  0.215	  0.185
[11:39:06.055]	  0.215	  0.185
[11:39:06.063]	  0.215	  0.185
[11:39:06.070]	  0.205	  0.175
[11:39:06.078]	  0.195	  0.165
[11:39:06.086]	  0.195	  0.165
[11:39:06.094]	  0.185	  0.155
[11:39:06.102]	  0.185	  0.155
[11:39:06.109]	  0.175	  0.145
[11:39:06.117]	  0.165	  0.145
[11:39:06.125]	  0.165	  0.135
[11:39:06.133]	  0.155	  0.135
[11:39:06.141]	  0.145	  0.115
[11:39:06.148]	  0.135	  0.115
[11:39:06.156]	 -0.615	 -0.525
[11:39:06.164]	 -0.665	 -0.595
[11:39:06.172]	 -0.635	 -0.585
[11:39:06.180]	 -0.635	 -0.575
[11:39:06.188]	 -0.625	 -0.575
[11:39:06.195]	 -0.625	 -0.565
[11:39:06.203]	 -0.615	 -0.565
[11:39:06.211]	 -0.605	 -0.555
[11:39:06.219]	 -0.605	 -0.545
[11:39:06.227]	 -0.595	 -0.545
[11:39:06.234]	 -0.585	 -0.535
[11:39:06.242]	 -0.575	 -0.535
[11:39:06.250]	 -0.565	 -0.515
[11:39:06.258]	 -0.565	 -0.515
[11:39:06.266]	 -0.555	 -0.505
[11:39:06.273]	 -0.545	 -0.505
[11:39:06.281]	 -0.535	 -0.495
[11:39:06.289]	 -0.525	 -0.485
[11:39:06.297]	 -0.515	 -0.485
[11:39:06.305]	 -0.515	 -0.475
[11:39:06.313]	 -0.505	 -0.475
[11:39:06.320]	 -0.495	 -0.465
[11:39:06.328]	 -0.495	 -0.465
[11:39:06.336]	 -0.495	 -0.455
[11:39:06.344]	 -0.475	 -0.445
[11:39:06.352]	 -0.475	 -0.435
[11:39:06.359]	 -0.465	 -0.435
[11:39:06.367]	 -0.465	 -0.425
[11:39:06.375]	 -0.455	 -0.425
[11:39:06.383]	 -0.445	 -0.415
[11:39:06.391]	 -0.445	 -0.415
[11:39:06.398]	 -0.435	 -0.405
[11:39:06.406]	 -0.435	 -0.405
[11:39:06.414]	 -0.425	 -0.395
[11:39:06.422]	 -0.425	 -0.395
[11:39:06.430]	 -0.415	 -0.385
[11:39:06.438]	 -0.405	 -0.375
[11:39:06.445]	 -0.405	 -0.375
[11:39:06.453]	 -0.395	 -0.375
[11:39:06.461]	 -0.385	 -0.365
[11:39:06.469]	 -0.385	 -0.365
[11:39:06.477]	 -0.375	 -0.355
[11:39:06.484]	 -0.375	 -0.355
[11:39:06.492]	 -0.365	 -0.345
[11:39:06.500]	 -0.365	 -0.345
[11:39:06.508]	 -0.355	 -0.335
[11:39:06.516]	 -0.345	 -0.335
[11:39:06.523]	 -0.345	 -0.325
[11:39:06.531]	 -0.335	 -0.325
[11:39:06.539]	 -0.335	 -0.315
[11:39:06.547]	 -0.325	 -0.315
[11:39:06.555]	 -0.325	 -0.305
[11:39:06.563]	 -0.315	 -0.305
[11:39:06.570]	 -0.305	 -0.305
[11:39:06.578]	 -0.305	 -0.295
[11:39:06.586]	 -0.295	 -0.295
[11:39:06.594]	 -0.295	 -0.285
[11:39:06.602]	 -0.285	 -0.285
[11:39:06.609]	 -0.285	 -0.285
[11:39:06.617]	 -0.275	 -0.275
[11:39:06.625]	 -0.275	 -0.265
[11:39:06.633]	 -0.265	 -0.265
[11:39:06.641]	 -0.255	 -0.255
[11:39:06.648]	 -0.235	 -0.245
[11:39:06.656]	  0.295	  0.205
[11:39:06.664]	  0.575	  0.475
[11:39:06.672]	  0.535	  0.455
[11:39:06.680]	  0.535	  0.445
[11:39:06.688]	  0.525	  0.445
[11:39:06.695]	  0.515	  0.445
[11:39:06.703]	  0.505	  0.425
[11:39:06.711]	  0.505	  0.425
[11:39:06.719]	  0.495	  0.425
[11:39:06.727]	  0.485	  0.415
[11:39:06.734]	  0.475	  0.405
[11:39:06.742]	  0.475	  0.395
[11:39:06.750]	  0.465	  0.385
[11:39:06.758]	  0.465	  0.385
[11:39:06.766]	  0.445	  0.375
[11:39:06.773]	  0.435	  0.365
[11:39:06.781]	  0.425	  0.365
[11:39:06.789]	  0.425	  0.355
[11:39:06.797]	  0.415	  0.345
[11:39:06.805]	  0.405	  0.335
[11:39:06.813]	  0.395	  0.335
[11:39:06.820]	  0.385	  0.325
[11:39:06.828]	  0.375	  0.315
[11:39:06.836]	  0.375	  0.305
[11:39:06.844]	  0.375	  0.305
[11:39:06.852]	  0.355	  0.295
[11:39:06.859]	  0.345	  0.285
[11:39:06.867]	  0.345	  0.285
[11:39:06.875]	  0.345	  0.275
[11:39:06.883]	  0.335	  0.265
[11:39:06.891]	  0.325	  0.265
[11:39:06.898]	  0.325	  0.255
[11:39:06.906]	  0.315	  0.255
[11:39:06.914]	  0.305	  0.245
[11:39:06.922]	  0.305	  0.235
[11:39:06.930]	  0.295	  0.225
[11:39:06.938]	  0.295	  0.225
[11:39:06.945]	  0.285	  0.225
[11:39:06.953]	  0.275	  0.215
[11:39:06.961]	  0.275	  0.205
[11:39:06.969]	  0.275	  0.205
[11:39:06.977]	  0.265	  0.205
[11:39:06.984]	  0.255	  0.195
[11:39:06.992]	  0.255	  0.195
[11:39:07.000]	  0.245	  0.185
[11:39:07.008]	  0.235	  0.185
[11:39:07.016]	  0.235	  0.165
[11:39:07.023]	  0.225	  0.165
[11:39:07.031]	  0.225	  0.165
[11:39:07.039]	  0.215	  0.165
[11:39:07.047]	  0.215	  0.145
[11:39:07.055]	  0.205	  0.145
[11:39:07.063]	  0.205	  0.145
[11:39:07.070]	  0.205	  0.145
[11:39:07.078]	  0.195	  0.135
[11:39:07.086]	  0.185	  0.125
[11:39:07.094]	  0.185	  0.125
[11:39:07.102]	  0.175	  0.125
[11:39:07.109]	  0.165	  0.115
[11:39:07.117]	  0.165	  0.115
[11:39:07.125]	  0.155	  0.095
[11:39:07.133]	  0.155	  0.095
[11:39:07.141]	  0.135	  0.085
[11:39:07.148]	  0.115	  0.075
[11:39:07.156]	 -0.535	 -0.495
[11:39:07.164]	 -0.675	 -0.645
[11:39:07.172]	 -0.645	 -0.625
[11:39:07.180]	 -0.635	 -0.615
[11:39:07.188]	 -0.635	 -0.615
[11:39:07.195]	 -0.625	 -0.605
[11:39:07.203]	 -0.615	 -0.605
[11:39:07.211]	 -0.605	 -0.595
[11:39:07.219]	 -0.605	 -0.585
[11:39:07.227]	 -0.595	 -0.575
[11:39:07.234]	 -0.585	 -0.575
[11:39:07.242]	 -0.575	 -0.565
[11:39:07.250]	 -0.575	 -0.555
[11:39:07.258]	 -0.565	 -0.545
[11:39:07.266]	 -0.555	 -0.545
[11:39:07.273]	 -0.545	 -0.535
[11:39:07.281]	 -0.535	 -0.525
[11:39:07.289]	 -0.535	 -0.525
[11:39:07.297]	 -0.525	 -0.515
[11:39:07.305]	 -0.515	 -0.515
[11:39:07.313]	 -0.515	 -0.505
[11:39:07.320]	 -0.505	 -0.495
[11:39:07.328]	 -0.495	 -0.495
[11:39:07.336]	 -0.485	 -0.485
[11:39:07.344]	 -0.485	 -0.475
[11:39:07.352]	 -0.475	 -0.465
[11:39:07.359]	 -0.475	 -0.465
[11:39:07.367]	 -0.465	 -0.465
[11:39:07.375]	 -0.455	 -0.455
[11:39:07.383]	 -0.445	 -0.445
[11:39:07.391]	 -0.445	 -0.445
[11:39:07.398]	 -0.435	 -0.435
[11:39:07.406]	 -0.425	 -0.435
[11:39:07.414]	 -0.425	 -0.425
[11:39:07.422]	 -0.415	 -0.425
[11:39:07.430]	 -0.405	 -0.415
[11:39:07.438]	 -0.395	 -0.405
[11:39:07.445]	 -0.405	 -0.395
[11:39:07.453]	 -0.385	 -0.395
[11:39:07.461]	 -0.385	 -0.395
[11:39:07.469]	 -0.375	 -0.385
[11:39:07.477]	 -0.375	 -0.385
[11:39:07.484]	 -0.365	 -0.385
[11:39:07.492]	 -0.355	 -0.375
[11:39:07.500]	 -0.355	 -0.365
[11:39:07.508]	 -0.355	 -0.365
[11:39:07.516]	 -0.345	 -0.355
[11:39:07.523]	 -0.345	 -0.355
[11:39:07.531]	 -0.335	 -0.345
[11:39:07.539]	 -0.325	 -0.345
[11:39:07.547]	 -0.325	 -0.345
[11:39:07.555]	 -0.315	 -0.335
[11:39:07.563]	 -0.315	 -0.325
[11:39:07.570]	 -0.315	 -0.325
[11:39:07.578]	 -0.305	 -0.315
[11:39:07.586]	 -0.295	 -0.315
[11:39:07.594]	 -0.295	 -0.305
[11:39:07.602]	 -0.295	 -0.305
[11:39:07.609]	 -0.295	 -0.295
[11:39:07.617]	 -0.275	 -0.295
[11:39:07.625]	 -0.275	 -0.285
[11:39:07.633]	 -0.275	 -0.275
[11:39:07.641]	 -0.265	 -0.275
[11:39:07.648]	 -0.245	 -0.255
[11:39:07.656]	 -0.105	 -0.135
[11:39:07.664]	  0.575	  0.475
[11:39:07.672]	  0.535	  0.445
[11:39:07.680]	  0.525	  0.435
[11:39:07.688]	  0.515	  0.435
[11:39:07.695]	  0.515	  0.435
[11:39:07.703]	  0.505	  0.425
[11:39:07.711]	  0.505	  0.415
[11:39:07.719]	  0.495	  0.405
[11:39:07.727]	  0.485	  0.405
[11:39:07.734]	  0.475	  0.395
[11:39:07.742]	  0.465	  0.385
[11:39:07.750]	  0.465	  0.375
[11:39:07.758]	  0.455	  0.375
[11:39:07.766]	  0.445	  0.365
[11:39:07.773]	  0.435	  0.365
[11:39:07.781]	  0.435	  0.355
[11:39:07.789]	  0.425	  0.355
[11:39:07.797]	  0.415	  0.335
[11:39:07.805]	  0.405	  0.335
[11:39:07.813]	  0.405	  0.325
[11:39:07.820]	  0.395	  0.325
[11:39:07.828]	  0.385	  0.315
[11:39:07.836]	  0.375	  0.305
[11:39:07.844]	  0.375	  0.305
[11:39:07.852]	  0.365	  0.295
[11:39:07.859]	  0.355	  0.285
[11:39:07.867]	  0.355	  0.285
[11:39:07.875]	  0.345	  0.275
[11:39:07.883]	  0.335	  0.275
[11:39:07.891]	  0.335	  0.265
[11:39:07.898]	  0.325	  0.255
[11:39:07.906]	  0.315	  0.255
[11:39:07.914]	  0.315	  0.245
[11:39:07.922]	  0.305	  0.245
[11:39:07.930]	  0.295	  0.235
[11:39:07.938]	  0.285	  0.235
[11:39:07.945]	  0.285	  0.225
[11:39:07.953]	  0.275	  0.225
[11:39:07.961]	  0.275	  0.215
[11:39:07.969]	  0.265	  0.215
[11:39:07.977]	  0.255	  0.205
[11:39:07.984]	  0.255	  0.195
[11:39:07.992]	  0.245	  0.195
[11:39:08.000]	  0.245	  0.195
[11:39:08.008]	  0.235	  0.185
[11:39:08.016]	  0.225	  0.175
[11:39:08.023]	  0.225	  0.175
[11:39:08.031]	  0.215	  0.175
[11:39:08.039]	  0.215	  0.165
[11:39:08.047]	  0.215	  0.165
[11:39:08.055]	  0.205	  0.155
[11:39:08.063]	  0.195	  0.155
[11:39:08.070]	  0.195	  0.145
[11:39:08.078]	  0.185	  0.145
[11:39:08.086]	  0.185	  0.135
[11:39:08.094]	  0.175	  0.135
[11:39:08.102]	  0.175	  0.125
[11:39:08.109]	  0.165	  0.125
[11:39:08.117]	  0.165	  0.115
[11:39:08.125]	  0.155	  0.115
[11:39:08.133]	  0.145	  0.115
[11:39:08.141]	  0.135	  0.095
[11:39:08.148]	  0.125	  0.095
[11:39:08.156]	 -0.605	 -0.575
[11:39:08.164]	 -0.645	 -0.625
[11:39:08.172]	 -0.635	 -0.615
[11:39:08.180]	 -0.625	 -0.605
[11:39:08.188]	 -0.625	 -0.605
[11:39:08.195]	 -0.615	 -0.595
[11:39:08.203]	 -0.615	 -0.595
[11:39:08.211]	 -0.605	 -0.585
[11:39:08.219]	 -0.595	 -0.575
[11:39:08.227]	 -0.585	 -0.565
[11:39:08.234]	 -0.585	 -0.565
[11:39:08.242]	 -0.575	 -0.545
[11:39:08.250]	 -0.565	 -0.545
[11:39:08.258]	 -0.555	 -0.535
[11:39:08.266]	 -0.545	 -0.535
[11:39:08.273]	 -0.535	 -0.525
[11:39:08.281]	 -0.535	 -0.515
[11:39:08.289]	 -0.525	 -0.505
[11:39:08.297]	 -0.515	 -0.505
[11:39:08.305]	 -0.515	 -0.495
[11:39:08.313]	 -0.505	 -0.485
[11:39:08.320]	 -0.505	 -0.475
[11:39:08.328]	 -0.495	 -0.475
[11:39:08.336]	 -0.485	 -0.465
[11:39:08.344]	 -0.475	 -0.465
[11:39:08.352]	 -0.465	 -0.455
[11:39:08.359]	 -0.465	 -0.445
[11:39:08.367]	 -0.465	 -0.435
[11:39:08.375]	 -0.455	 -0.435
[11:39:08.383]	 -0.445	 -0.425
[11:39:08.391]	 -0.445	 -0.425
[11:39:08.398]	 -0.435	 -0.415
[11:39:08.406]	 -0.435	 -0.405
[11:39:08.414]	 -0.425	 -0.405
[11:39:08.422]	 -0.415	 -0.405
[11:39:08.430]	 -0.405	 -0.395
[11:39:08.438]	 -0.405	 -0.385
[11:39:08.445]	 -0.395	 -0.375
[11:39:08.453]	 -0.395	 -0.375
[11:39:08.461]	 -0.385	 -0.375
[11:39:08.469]	 -0.375	 -0.365
[11:39:08.477]	 -0.365	 -0.355
[11:39:08.484]	 -0.365	 -0.355
[11:39:08.492]	 -0.355	 -0.355
[11:39:08.500]	 -0.345	 -0.345
[11:39:08.508]	 -0.345	 -0.335
[11:39:08.516]	 -0.345	 -0.335
[11:39:08.523]	 -0.325	 -0.325
[11:39:08.531]	 -0.325	 -0.325
[11:39:08.539]	 -0.325	 -0.315
[11:39:08.547]	 -0.315	 -0.315
[11:39:08.555]	 -0.305	 -0.305
[11:39:08.563]	 -0.305	 -0.305
[11:39:08.570]	 -0.295	 -0.295
[11:39:08.578]	 -0.295	 -0.295
[11:39:08.586]	 -0.285	 -0.285
[11:39:08.594]	 -0.285	 -0.275
[11:39:08.602]	 -0.275	 -0.275
[11:39:08.609]	 -0.275	 -0.275
[11:39:08.617]	 -0.265	 -0.265
[11:39:08.625]	 -0.265	 -0.255
[11:39:08.633]	 -0.255	 -0.255
[11:39:08.641]	 -0.245	 -0.245
[11:39:08.648]	 -0.215	 -0.235
[11:39:08.656]	  0.485	  0.385
[11:39:08.664]	  0.575	  0.495
[11:39:08.672]	  0.545	  0.475
[11:39:08.680]	  0.535	  0.465
[11:39:08.688]	  0.525	  0.465
[11:39:08.695]	  0.525	  0.455
[11:39:08.703]	  0.515	  0.445
[11:39:08.711]	  0.505	  0.445
[11:39:08.719]	  0.505	  0.435
[11:39:08.727]	  0.495	  0.425
[11:39:08.734]	  0.485	  0.415
[11:39:08.742]	  0.475	  0.415
[11:39:08.750]	  0.475	  0.405
[11:39:08.758]	  0.455	  0.395
[11:39:08.766]	  0.455	  0.385
[11:39:08.773]	  0.445	  0.375
[11:39:08.781]	  0.435	  0.375
[11:39:08.789]	  0.435	  0.375
[11:39:08.797]	  0.425	  0.355
[11:39:08.805]	  0.415	  0.355
[11:39:08.813]	  0.405	  0.355
[11:39:08.820]	  0.395	  0.345
[11:39:08.828]	  0.395	  0.335
[11:39:08.836]	  0.395	  0.325
[11:39:08.844]	  0.375	  0.325
[11:39:08.852]	  0.375	  0.315
[11:39:08.859]	  0.355	  0.305
[11:39:08.867]	  0.355	  0.305
[11:39:08.875]	  0.345	  0.295
[11:39:08.883]	  0.345	  0.295
[11:39:08.891]	  0.335	  0.285
[11:39:08.898]	  0.335	  0.275
[11:39:08.906]	  0.325	  0.275
[11:39:08.914]	  0.325	  0.265
[11:39:08.922]	  0.315	  0.255
[11:39:08.930]	  0.305	  0.255
[11:39:08.938]	  0.305	  0.255
[11:39:08.945]	  0.305	  0.245
[11:39:08.953]	  0.295	  0.245
[11:39:08.961]	  0.295	  0.235
[11:39:08.969]	  0.285	  0.235
[11:39:08.977]	  0.285	  0.225
[11:39:08.984]	  0.275	  0.215
[11:39:08.992]	  0.275	  0.215
[11:39:09.000]	  0.265	  0.215
[11:39:09.008]	  0.255	  0.205
[11:39:09.016]	  0.255	  0.195
[11:39:09.023]	  0.245	  0.195
[11:39:09.031]	  0.245	  0.195
[11:39:09.039]	  0.235	  0.185
[11:39:09.047]	  0.235	  0.185
[11:39:09.055]	  0.225	  0.175
[11:39:09.063]	  0.225	  0.175
[11:39:09.070]	  0.215	  0.175
[11:39:09.078]	  0.215	  0.165
[11:39:09.086]	  0.215	  0.165
[11:39:09.094]	  0.215	  0.155
[11:39:09.102]	  0.205	  0.155
[11:39:09.109]	  0.195	  0.145
[11:39:09.117]	  0.195	  0.145
[11:39:09.125]	  0.185	  0.135
[11:39:09.133]	  0.175	  0.135
[11:39:09.141]	  0.165	  0.125
[11:39:09.148]	  0.155	  0.115
[11:39:09.156]	  0.005	 -0.005
[11:39:09.164]	 -0.655	 -0.615
[11:39:09.172]	 -0.625	 -0.595
[11:39:09.180]	 -0.615	 -0.585
[11:39:09.188]	 -0.605	 -0.575
[11:39:09.195]	 -0.595	 -0.575
[11:39:09.203]	 -0.595	 -0.565
[11:39:09.211]	 -0.585	 -0.555
[11:39:09.219]	 -0.575	 -0.555
[11:39:09.227]	 -0.575	 -0.545
[11:39:09.234]	 -0.565	 -0.545
[11:39:09.242]	 -0.555	 -0.535
[11:39:09.250]	 -0.545	 -0.525
[11:39:09.258]	 -0.535	 -0.515
[11:39:09.266]	 -0.535	 -0.515
[11:39:09.273]	 -0.525	 -0.505
[11:39:09.281]	 -0.515	 -0.495
[11:39:09.289]	 -0.505	 -0.485
[11:39:09.297]	 -0.495	 -0.485
[11:39:09.305]	 -0.495	 -0.475
[11:39:09.313]	 -0.485	 -0.465
[11:39:09.320]	 -0.485	 -0.465
[11:39:09.328]	 -0.475	 -0.455
[11:39:09.336]	 -0.455	 -0.455
[11:39:09.344]	 -0.445	 -0.445
[11:39:09.352]	 -0.445	 -0.435
[11:39:09.359]	 -0.445	 -0.435
[11:39:09.367]	 -0.425	 -0.425
[11:39:09.375]	 -0.425	 -0.415
[11:39:09.383]	 -0.415	 -0.415
[11:39:09.391]	 -0.415	 -0.405
[11:39:09.398]	 -0.405	 -0.395
[11:39:09.406]	 -0.395	 -0.395
[11:39:09.414]	 -0.385	 -0.385
[11:39:09.422]	 -0.375	 -0.375
[11:39:09.430]	 -0.375	 -0.375
[11:39:09.438]	 -0.365	 -0.365
[11:39:09.445]	 -0.365	 -0.365
[11:39:09.453]	 -0.365	 -0.365
[11:39:09.461]	 -0.355	 -0.355
[11:39:09.469]	 -0.345	 -0.345
[11:39:09.477]	 -0.345	 -0.345
[11:39:09.484]	 -0.335	 -0.345
[11:39:09.492]	 -0.325	 -0.335
[11:39:09.500]	 -0.315	 -0.325
[11:39:09.508]	 -0.315	 -0.325
[11:39:09.516]	 -0.315	 -0.325
[11:39:09.523]	 -0.305	 -0.315
[11:39:09.531]	 -0.295	 -0.305
[11:39:09.539]	 -0.295	 -0.305
[11:39:09.547]	 -0.285	 -0.305
[11:39:09.555]	 -0.275	 -0.295
[11:39:09.563]	 -0.275	 -0.295
[11:39:09.570]	 -0.265	 -0.285
[11:39:09.578]	 -0.265	 -0.285
[11:39:09.586]	 -0.255	 -0.275
[11:39:09.594]	 -0.255	 -0.265
[11:39:09.602]	 -0.245	 -0.265
[11:39:09.609]	 -0.235	 -0.265
[11:39:09.617]	 -0.225	 -0.255
[11:39:09.625]	 -0.225	 -0.255
[11:39:09.633]	 -0.215	 -0.245
[11:39:09.641]	 -0.205	 -0.235
[11:39:09.648]	 -0.185	 -0.225
[11:39:09.656]	  0.445	  0.375
[11:39:09.664]	  0.585	  0.495
[11:39:09.672]	  0.565	  0.475
[11:39:09.680]	  0.565	  0.475
[11:39:09.688]	  0.555	  0.465
[11:39:09.695]	  0.545	  0.455
[11:39:09.703]	  0.545	  0.445
[11:39:09.711]	  0.535	  0.445
[11:39:09.719]	  0.535	  0.435
[11:39:09.727]	  0.525	  0.425
[11:39:09.734]	  0.515	  0.415
[11:39:09.742]	  0.505	  0.415
[11:39:09.750]	  0.495	  0.405
[11:39:09.758]	  0.495	  0.405
[11:39:09.766]	  0.485	  0.385
[11:39:09.773]	  0.485	  0.385
[11:39:09.781]	  0.475	  0.375
[11:39:09.789]	  0.455	  0.375
[11:39:09.797]	  0.455	  0.365
[11:39:09.805]	  0.445	  0.355
[11:39:09.813]	  0.435	  0.345
[11:39:09.820]	  0.435	  0.345
[11:39:09.828]	  0.425	  0.335
[11:39:09.836]	  0.425	  0.325
[11:39:09.844]	  0.415	  0.325
[11:39:09.852]	  0.405	  0.315
[11:39:09.859]	  0.395	  0.305
[11:39:09.867]	  0.395	  0.305
[11:39:09.875]	  0.375	  0.295
[11:39:09.883]	  0.375	  0.295
[11:39:09.891]	  0.375	  0.275
[11:39:09.898]	  0.365	  0.275
[11:39:09.906]	  0.355	  0.265
[11:39:09.914]	  0.355	  0.265
[11:39:09.922]	  0.345	  0.255
[11:39:09.930]	  0.345	  0.255
[11:39:09.938]	  0.335	  0.245
[11:39:09.945]	  0.325	  0.245
[11:39:09.953]	  0.325	  0.225
[11:39:09.961]	  0.315	  0.225
[11:39:09.969]	  0.305	  0.215
[11:39:09.977]	  0.305	  0.215
[11:39:09.984]	  0.295	  0.205
[11:39:09.992]	  0.295	  0.205